180.000000 130.000000
180.000000 129.000000
181.000000 132.000000
180.000000 127.000000
181.000000 128.000000
182.000000 131.000000
181.000000 127.000000
179.000000 129.000000
180.000000 127.000000
182.000000 128.000000
180.000000 126.000000
181.000000 128.000000
181.000000 126.000000
181.000000 126.000000
183.000000 129.000000
180.000000 128.000000
180.000000 130.000000
177.000000 132.000000
174.000000 136.000000
176.000000 131.000000
177.000000 135.000000
176.000000 135.000000
175.000000 135.000000
174.000000 133.000000
175.000000 133.000000
177.000000 134.000000
176.000000 132.000000
176.000000 134.000000
178.000000 133.000000
180.000000 130.000000
180.000000 131.000000
181.000000 128.000000
183.000000 128.000000
182.000000 130.000000
182.000000 132.000000
182.000000 127.000000
182.000000 132.000000
181.000000 134.000000
184.000000 130.000000
180.000000 128.000000
182.000000 129.000000
180.000000 127.000000
179.000000 128.000000
177.000000 129.000000
177.000000 131.000000
176.000000 133.000000
177.000000 132.000000
177.000000 132.000000
175.000000 133.000000
173.000000 133.000000
176.000000 135.000000
175.000000 133.000000
178.000000 135.000000
175.000000 134.000000
174.000000 135.000000
178.000000 134.000000
181.000000 134.000000
178.000000 131.000000
180.000000 133.000000
178.000000 132.000000
178.000000 130.000000
180.000000 132.000000
181.000000 132.000000
180.000000 131.000000
180.000000 129.000000
182.000000 127.000000
184.000000 128.000000
181.000000 128.000000
183.000000 128.000000
183.000000 129.000000
180.000000 128.000000
179.000000 126.000000
179.000000 128.000000
177.000000 125.000000
179.000000 130.000000
179.000000 134.000000
175.000000 134.000000
177.000000 134.000000
176.000000 136.000000
175.000000 139.000000
175.000000 137.000000
174.000000 134.000000
175.000000 136.000000
174.000000 133.000000
176.000000 135.000000
176.000000 134.000000
174.000000 135.000000
175.000000 134.000000
179.000000 134.000000
178.000000 132.000000
179.000000 133.000000
176.000000 131.000000
180.000000 130.000000
183.000000 127.000000
183.000000 131.000000
186.000000 129.000000
185.000000 128.000000
185.000000 128.000000
184.000000 128.000000
182.000000 129.000000
179.000000 128.000000
180.000000 125.000000
178.000000 127.000000
178.000000 128.000000
178.000000 129.000000
177.000000 128.000000
177.000000 131.000000
177.000000 132.000000
175.000000 132.000000
176.000000 134.000000
175.000000 134.000000
175.000000 133.000000
176.000000 134.000000
174.000000 134.000000
175.000000 133.000000
174.000000 135.000000
177.000000 133.000000
178.000000 134.000000
180.000000 134.000000
178.000000 133.000000
180.000000 132.000000
182.000000 133.000000
181.000000 129.000000
181.000000 130.000000
182.000000 128.000000
183.000000 130.000000
183.000000 127.000000
183.000000 131.000000
183.000000 127.000000
180.000000 126.000000
181.000000 127.000000
179.000000 126.000000
178.000000 128.000000
177.000000 128.000000
176.000000 129.000000
178.000000 131.000000
181.000000 133.000000
179.000000 134.000000
179.000000 134.000000
179.000000 133.000000
179.000000 133.000000
176.000000 135.000000
174.000000 133.000000
175.000000 134.000000
174.000000 134.000000
175.000000 135.000000
173.000000 133.000000
178.000000 133.000000
176.000000 133.000000
179.000000 132.000000
182.000000 132.000000
182.000000 132.000000
180.000000 131.000000
182.000000 130.000000
182.000000 127.000000
182.000000 128.000000
181.000000 127.000000
183.000000 126.000000
180.000000 127.000000
181.000000 130.000000
181.000000 128.000000
181.000000 130.000000
179.000000 129.000000
179.000000 130.000000
177.000000 134.000000
178.000000 131.000000
176.000000 133.000000
177.000000 135.000000
176.000000 133.000000
174.000000 135.000000
174.000000 135.000000
174.000000 134.000000
173.000000 137.000000
175.000000 136.000000
174.000000 136.000000
174.000000 132.000000
176.000000 136.000000
179.000000 133.000000
180.000000 133.000000
178.000000 131.000000
184.000000 132.000000
186.000000 129.000000
185.000000 130.000000
183.000000 128.000000
183.000000 131.000000
183.000000 130.000000
181.000000 128.000000
184.000000 128.000000
183.000000 124.000000
182.000000 126.000000
180.000000 126.000000
180.000000 128.000000
182.000000 127.000000
178.000000 127.000000
181.000000 128.000000
176.000000 129.000000
177.000000 127.000000
179.000000 132.000000
175.000000 129.000000
177.000000 133.000000
173.000000 138.000000
177.000000 138.000000
174.000000 134.000000
175.000000 136.000000
176.000000 136.000000
173.000000 136.000000
174.000000 135.000000
178.000000 133.000000
176.000000 131.000000
179.000000 132.000000
180.000000 133.000000
179.000000 129.000000
181.000000 127.000000
183.000000 129.000000
180.000000 131.000000
183.000000 127.000000
181.000000 130.000000
181.000000 128.000000
182.000000 127.000000
183.000000 127.000000
183.000000 128.000000
182.000000 129.000000
184.000000 127.000000
180.000000 130.000000
181.000000 129.000000
180.000000 130.000000
178.000000 132.000000
177.000000 134.000000
175.000000 135.000000
175.000000 135.000000
174.000000 132.000000
176.000000 133.000000
177.000000 135.000000
175.000000 136.000000
172.000000 134.000000
174.000000 132.000000
173.000000 133.000000
177.000000 133.000000
178.000000 132.000000
181.000000 129.000000
182.000000 129.000000
182.000000 130.000000
182.000000 131.000000
182.000000 132.000000
184.000000 128.000000
183.000000 132.000000
182.000000 131.000000
182.000000 132.000000
182.000000 131.000000
180.000000 128.000000
179.000000 130.000000
180.000000 127.000000
181.000000 126.000000
176.000000 131.000000
176.000000 131.000000
176.000000 132.000000
176.000000 134.000000
176.000000 133.000000
174.000000 135.000000
175.000000 136.000000
178.000000 134.000000
177.000000 135.000000
176.000000 135.000000
176.000000 133.000000
175.000000 136.000000
178.000000 135.000000
175.000000 133.000000
177.000000 135.000000
175.000000 133.000000
180.000000 130.000000
179.000000 130.000000
180.000000 128.000000
182.000000 127.000000
181.000000 127.000000
183.000000 128.000000
183.000000 130.000000
183.000000 128.000000
180.000000 127.000000
182.000000 126.000000
179.000000 127.000000
181.000000 126.000000
180.000000 126.000000
180.000000 124.000000
178.000000 128.000000
178.000000 132.000000
176.000000 133.000000
176.000000 137.000000
175.000000 137.000000
174.000000 139.000000
175.000000 139.000000
174.000000 136.000000
177.000000 135.000000
173.000000 134.000000
177.000000 134.000000
174.000000 136.000000
177.000000 136.000000
176.000000 132.000000
177.000000 133.000000
180.000000 132.000000
178.000000 132.000000
179.000000 131.000000
181.000000 131.000000
180.000000 130.000000
183.000000 129.000000
183.000000 129.000000
186.000000 130.000000
186.000000 127.000000
186.000000 127.000000
184.000000 128.000000
181.000000 127.000000
181.000000 128.000000
180.000000 126.000000
178.000000 127.000000
178.000000 130.000000
177.000000 133.000000
177.000000 131.000000
177.000000 132.000000
175.000000 134.000000
179.000000 133.000000
176.000000 133.000000
174.000000 133.000000
176.000000 134.000000
176.000000 135.000000
173.000000 134.000000
175.000000 131.000000
175.000000 135.000000
176.000000 133.000000
178.000000 134.000000
180.000000 137.000000
181.000000 133.000000
181.000000 133.000000
183.000000 133.000000
183.000000 132.000000
183.000000 129.000000
180.000000 129.000000
181.000000 129.000000
184.000000 130.000000
179.000000 127.000000
180.000000 128.000000
179.000000 126.000000
179.000000 128.000000
178.000000 129.000000
177.000000 128.000000
178.000000 131.000000
178.000000 133.000000
179.000000 134.000000
179.000000 132.000000
177.000000 135.000000
180.000000 134.000000
176.000000 133.000000
176.000000 134.000000
174.000000 133.000000
174.000000 135.000000
176.000000 134.000000
177.000000 131.000000
174.000000 132.000000
179.000000 132.000000
179.000000 132.000000
181.000000 131.000000
182.000000 128.000000
180.000000 137.000000
184.000000 131.000000
186.000000 132.000000
187.000000 135.000000
190.000000 137.000000
186.000000 138.000000
188.000000 141.000000
186.000000 141.000000
185.000000 143.000000
182.000000 142.000000
182.000000 142.000000
180.000000 144.000000
180.000000 147.000000
175.000000 144.000000
179.000000 144.000000
176.000000 147.000000
178.000000 148.000000
176.000000 148.000000
175.000000 150.000000
176.000000 149.000000
174.000000 147.000000
172.000000 147.000000
174.000000 148.000000
175.000000 143.000000
176.000000 144.000000
176.000000 144.000000
179.000000 138.000000
181.000000 138.000000
182.000000 138.000000
184.000000 136.000000
184.000000 132.000000
183.000000 133.000000
184.000000 132.000000
184.000000 131.000000
183.000000 131.000000
181.000000 130.000000
183.000000 130.000000
182.000000 130.000000
180.000000 126.000000
183.000000 129.000000
179.000000 129.000000
176.000000 131.000000
179.000000 132.000000
179.000000 132.000000
178.000000 133.000000
176.000000 132.000000
173.000000 131.000000
177.000000 135.000000
176.000000 137.000000
176.000000 138.000000
173.000000 137.000000
174.000000 137.000000
175.000000 140.000000
175.000000 136.000000
176.000000 137.000000
177.000000 132.000000
178.000000 133.000000
178.000000 130.000000
180.000000 133.000000
181.000000 131.000000
182.000000 129.000000
181.000000 130.000000
183.000000 129.000000
180.000000 131.000000
182.000000 131.000000
181.000000 127.000000
184.000000 130.000000
181.000000 127.000000
182.000000 126.000000
181.000000 127.000000
180.000000 130.000000
182.000000 129.000000
180.000000 132.000000
178.000000 135.000000
177.000000 133.000000
175.000000 134.000000
177.000000 134.000000
174.000000 134.000000
175.000000 136.000000
175.000000 135.000000
173.000000 136.000000
174.000000 136.000000
176.000000 136.000000
175.000000 132.000000
177.000000 133.000000
177.000000 134.000000
179.000000 132.000000
181.000000 133.000000
182.000000 128.000000
182.000000 130.000000
183.000000 131.000000
184.000000 132.000000
183.000000 131.000000
182.000000 129.000000
180.000000 132.000000
182.000000 131.000000
181.000000 129.000000
178.000000 129.000000
179.000000 128.000000
179.000000 125.000000
178.000000 128.000000
179.000000 131.000000
176.000000 132.000000
178.000000 133.000000
177.000000 133.000000
176.000000 135.000000
175.000000 134.000000
174.000000 134.000000
176.000000 135.000000
176.000000 135.000000
176.000000 136.000000
178.000000 135.000000
176.000000 136.000000
180.000000 134.000000
180.000000 132.000000
181.000000 132.000000
179.000000 131.000000
181.000000 133.000000
183.000000 131.000000
179.000000 131.000000
184.000000 131.000000
183.000000 129.000000
182.000000 128.000000
183.000000 128.000000
181.000000 130.000000
181.000000 129.000000
181.000000 129.000000
181.000000 129.000000
178.000000 128.000000
180.000000 128.000000
180.000000 129.000000
179.000000 136.000000
179.000000 138.000000
178.000000 137.000000
177.000000 141.000000
177.000000 143.000000
178.000000 144.000000
177.000000 148.000000
180.000000 148.000000
177.000000 150.000000
178.000000 152.000000
179.000000 156.000000
182.000000 158.000000
181.000000 162.000000
185.000000 165.000000
185.000000 169.000000
186.000000 173.000000
189.000000 182.000000
188.000000 190.000000
190.000000 196.000000
195.000000 213.000000
201.000000 228.000000
208.000000 244.000000
220.000000 266.000000
236.000000 295.000000
256.000000 337.000000
284.000000 389.000000
326.000000 459.000000
392.000000 553.000000
485.000000 656.000000
587.000000 751.000000
681.000000 820.000000
761.000000 876.000000
841.000000 932.000000
932.000000 1013.000000
1044.000000 1114.000000
1182.000000 1248.000000
1334.000000 1399.000000
1474.000000 1539.000000
1567.000000 1641.000000
1608.000000 1698.000000
1626.000000 1727.000000
1648.000000 1764.000000
1702.000000 1825.000000
1773.000000 1901.000000
1850.000000 1974.000000
1932.000000 2046.000000
2021.000000 2121.000000
2151.000000 2231.000000
2299.000000 2347.000000
2426.000000 2443.000000
2525.000000 2516.000000
2636.000000 2599.000000
2780.000000 2716.000000
2951.000000 2858.000000
3158.000000 3033.000000
3403.000000 3249.000000
3653.000000 3473.000000
3902.000000 3681.000000
4105.000000 3831.000000
4214.000000 3896.000000
4269.000000 3920.000000
4360.000000 3968.000000
4475.000000 4035.000000
4593.000000 4124.000000
4728.000000 4246.000000
4938.000000 4442.000000
5296.000000 4761.000000
5896.000000 5302.000000
6912.000000 6185.000000
8581.000000 7582.000000
11287.000000 9814.000000
15598.000000 13434.000000
21518.000000 19128.000000
23533.000000 24602.000000
24297.000000 26367.000000
24633.000000 27064.000000
24717.000000 27264.000000
24885.000000 27684.000000
25074.000000 28115.000000
25212.000000 28427.000000
25287.000000 28601.000000
25329.000000 28689.000000
25356.000000 28754.000000
25377.000000 28817.000000
25409.000000 28918.000000
25447.000000 29029.000000
25487.000000 29142.000000
25523.000000 29244.000000
25555.000000 29328.000000
25578.000000 29386.000000
25596.000000 29432.000000
25611.000000 29476.000000
25623.000000 29516.000000
25636.000000 29545.000000
25645.000000 29571.000000
25647.000000 29587.000000
25654.000000 29610.000000
25664.000000 29635.000000
25672.000000 29665.000000
25681.000000 29696.000000
25691.000000 29728.000000
25698.000000 29753.000000
25711.000000 29780.000000
25719.000000 29800.000000
25728.000000 29815.000000
25731.000000 29831.000000
25738.000000 29838.000000
25739.000000 29843.000000
25740.000000 29843.000000
25734.000000 29838.000000
25733.000000 29829.000000
25727.000000 29817.000000
25729.000000 29807.000000
25723.000000 29804.000000
25721.000000 29795.000000
25721.000000 29788.000000
25722.000000 29782.000000
25718.000000 29774.000000
25716.000000 29763.000000
25714.000000 29752.000000
25712.000000 29743.000000
25709.000000 29729.000000
25703.000000 29716.000000
25692.000000 29692.000000
25677.000000 29645.000000
25644.000000 29558.000000
25594.000000 29433.000000
25534.000000 29268.000000
25462.000000 29073.000000
25383.000000 28870.000000
25314.000000 28692.000000
25270.000000 28580.000000
25237.000000 28508.000000
25225.000000 28483.000000
25224.000000 28480.000000
25228.000000 28487.000000
25239.000000 28513.000000
25256.000000 28553.000000
25275.000000 28604.000000
25301.000000 28668.000000
25325.000000 28726.000000
25348.000000 28786.000000
25373.000000 28837.000000
25394.000000 28883.000000
25409.000000 28918.000000
25421.000000 28956.000000
25442.000000 28997.000000
25460.000000 29039.000000
25474.000000 29081.000000
25492.000000 29127.000000
25505.000000 29166.000000
25519.000000 29199.000000
25529.000000 29221.000000
25531.000000 29228.000000
25532.000000 29227.000000
25530.000000 29220.000000
25525.000000 29212.000000
25522.000000 29200.000000
25514.000000 29182.000000
25508.000000 29169.000000
25500.000000 29150.000000
25492.000000 29138.000000
25490.000000 29118.000000
25483.000000 29102.000000
25475.000000 29090.000000
25480.000000 29090.000000
25486.000000 29104.000000
25494.000000 29128.000000
25502.000000 29154.000000
25512.000000 29178.000000
25521.000000 29198.000000
25529.000000 29221.000000
25535.000000 29241.000000
25545.000000 29259.000000
25552.000000 29272.000000
25561.000000 29296.000000
25573.000000 29325.000000
25589.000000 29357.000000
25600.000000 29386.000000
25607.000000 29405.000000
25611.000000 29420.000000
25617.000000 29430.000000
25615.000000 29432.000000
25615.000000 29432.000000
25615.000000 29436.000000
25622.000000 29447.000000
25628.000000 29464.000000
25641.000000 29493.000000
25651.000000 29517.000000
25664.000000 29545.000000
25668.000000 29554.000000
25671.000000 29560.000000
25666.000000 29559.000000
25663.000000 29551.000000
25658.000000 29536.000000
25653.000000 29518.000000
25650.000000 29519.000000
25654.000000 29528.000000
25657.000000 29532.000000
25664.000000 29542.000000
25665.000000 29550.000000
25665.000000 29553.000000
25664.000000 29546.000000
25663.000000 29545.000000
25660.000000 29541.000000
25661.000000 29542.000000
25662.000000 29542.000000
25667.000000 29553.000000
25666.000000 29558.000000
25659.000000 29539.000000
25636.000000 29481.000000
25600.000000 29384.000000
25547.000000 29243.000000
25482.000000 29078.000000
25411.000000 28903.000000
25352.000000 28745.000000
25299.000000 28621.000000
25261.000000 28539.000000
25238.000000 28491.000000
25231.000000 28474.000000
25236.000000 28487.000000
25249.000000 28530.000000
25266.000000 28567.000000
25283.000000 28615.000000
25303.000000 28660.000000
25323.000000 28704.000000
25339.000000 28738.000000
25353.000000 28776.000000
25370.000000 28811.000000
25384.000000 28838.000000
25396.000000 28872.000000
25417.000000 28923.000000
25431.000000 28964.000000
25444.000000 28997.000000
25455.000000 29023.000000
25462.000000 29044.000000
25469.000000 29060.000000
25472.000000 29068.000000
25474.000000 29074.000000
25471.000000 29069.000000
25466.000000 29052.000000
25459.000000 29035.000000
25449.000000 29012.000000
25445.000000 28997.000000
25441.000000 28987.000000
25436.000000 28979.000000
25432.000000 28965.000000
25424.000000 28948.000000
25418.000000 28935.000000
25411.000000 28922.000000
25412.000000 28914.000000
25407.000000 28906.000000
25406.000000 28906.000000
25404.000000 28909.000000
25409.000000 28917.000000
25408.000000 28930.000000
25420.000000 28944.000000
25421.000000 28960.000000
25433.000000 28982.000000
25439.000000 29003.000000
25451.000000 29032.000000
25459.000000 29050.000000
25467.000000 29067.000000
25474.000000 29089.000000
25482.000000 29109.000000
25489.000000 29130.000000
25498.000000 29159.000000
25512.000000 29189.000000
25527.000000 29218.000000
25532.000000 29239.000000
25541.000000 29255.000000
25543.000000 29265.000000
25549.000000 29280.000000
25554.000000 29294.000000
25560.000000 29309.000000
25562.000000 29315.000000
25566.000000 29321.000000
25570.000000 29327.000000
25572.000000 29335.000000
25574.000000 29343.000000
25581.000000 29358.000000
25586.000000 29369.000000
25590.000000 29383.000000
25592.000000 29384.000000
25591.000000 29386.000000
25589.000000 29375.000000
25585.000000 29374.000000
25584.000000 29375.000000
25586.000000 29381.000000
25582.000000 29367.000000
25565.000000 29325.000000
25529.000000 29240.000000
25483.000000 29115.000000
25420.000000 28956.000000
25359.000000 28801.000000
25302.000000 28661.000000
25257.000000 28554.000000
25224.000000 28477.000000
25206.000000 28435.000000
25194.000000 28414.000000
25196.000000 28415.000000
25198.000000 28428.000000
25205.000000 28449.000000
25217.000000 28481.000000
25236.000000 28526.000000
25252.000000 28573.000000
25275.000000 28629.000000
25296.000000 28684.000000
25321.000000 28735.000000
25340.000000 28787.000000
25359.000000 28825.000000
25372.000000 28864.000000
25389.000000 28901.000000
25404.000000 28935.000000
25420.000000 28980.000000
25437.000000 29024.000000
25452.000000 29064.000000
25460.000000 29091.000000
25463.000000 29107.000000
25463.000000 29097.000000
25458.000000 29081.000000
25447.000000 29046.000000
25429.000000 29013.000000
25416.000000 28979.000000
25404.000000 28953.000000
25399.000000 28936.000000
25394.000000 28926.000000
25391.000000 28923.000000
25389.000000 28920.000000
25389.000000 28914.000000
25384.000000 28902.000000
25380.000000 28890.000000
25378.000000 28889.000000
25381.000000 28897.000000
25386.000000 28919.000000
25400.000000 28952.000000
25414.000000 28986.000000
25426.000000 29017.000000
25439.000000 29045.000000
25444.000000 29063.000000
25453.000000 29079.000000
25455.000000 29088.000000
25461.000000 29106.000000
25464.000000 29117.000000
25473.000000 29139.000000
25481.000000 29166.000000
25492.000000 29193.000000
25505.000000 29217.000000
25510.000000 29244.000000
25514.000000 29260.000000
25523.000000 29270.000000
25526.000000 29274.000000
25528.000000 29274.000000
25529.000000 29284.000000
25535.000000 29297.000000
25543.000000 29316.000000
25547.000000 29329.000000
25553.000000 29359.000000
25565.000000 29397.000000
25583.000000 29447.000000
25601.000000 29493.000000
25621.000000 29546.000000
25639.000000 29598.000000
25653.000000 29651.000000
25672.000000 29698.000000
25686.000000 29754.000000
25712.000000 29818.000000
25736.000000 29885.000000
25753.000000 29943.000000
25773.000000 29998.000000
25788.000000 30040.000000
25794.000000 30065.000000
25786.000000 30058.000000
25767.000000 30026.000000
25740.000000 29968.000000
25709.000000 29898.000000
25676.000000 29823.000000
25645.000000 29739.000000
25608.000000 29652.000000
25579.000000 29575.000000
25552.000000 29514.000000
25541.000000 29481.000000
25531.000000 29467.000000
25534.000000 29483.000000
25542.000000 29514.000000
25557.000000 29563.000000
25572.000000 29615.000000
25592.000000 29670.000000
25606.000000 29718.000000
25627.000000 29771.000000
25645.000000 29828.000000
25670.000000 29888.000000
25693.000000 29930.000000
25704.000000 29965.000000
25712.000000 29995.000000
25727.000000 30046.000000
25752.000000 30123.000000
25782.000000 30199.000000
25802.000000 30274.000000
25821.000000 30328.000000
25832.000000 30359.000000
25835.000000 30373.000000
25831.000000 30374.000000
25825.000000 30365.000000
25816.000000 30340.000000
25807.000000 30321.000000
25794.000000 30288.000000
25785.000000 30272.000000
25785.000000 30275.000000
25792.000000 30298.000000
25801.000000 30327.000000
25814.000000 30361.000000
25822.000000 30389.000000
25829.000000 30410.000000
25833.000000 30418.000000
25836.000000 30427.000000
25839.000000 30438.000000
25848.000000 30457.000000
25861.000000 30481.000000
25874.000000 30511.000000
25882.000000 30543.000000
25897.000000 30587.000000
25908.000000 30624.000000
25920.000000 30658.000000
25925.000000 30681.000000
25935.000000 30702.000000
25941.000000 30715.000000
25947.000000 30735.000000
25953.000000 30746.000000
25956.000000 30757.000000
25960.000000 30764.000000
25960.000000 30772.000000
25961.000000 30776.000000
25967.000000 30791.000000
25979.000000 30818.000000
25988.000000 30858.000000
26000.000000 30891.000000
26007.000000 30922.000000
26010.000000 30938.000000
26014.000000 30955.000000
26022.000000 30981.000000
26033.000000 31013.000000
26045.000000 31032.000000
26048.000000 31043.000000
26043.000000 31044.000000
26041.000000 31038.000000
26036.000000 31029.000000
26032.000000 31033.000000
26034.000000 31041.000000
26036.000000 31057.000000
26042.000000 31075.000000
26046.000000 31090.000000
26055.000000 31110.000000
26060.000000 31127.000000
26064.000000 31133.000000
26064.000000 31131.000000
26049.000000 31097.000000
26014.000000 31007.000000
25951.000000 30857.000000
25878.000000 30677.000000
25806.000000 30509.000000
25746.000000 30360.000000
25702.000000 30245.000000
25669.000000 30172.000000
25651.000000 30130.000000
25650.000000 30119.000000
25651.000000 30119.000000
25658.000000 30130.000000
25663.000000 30152.000000
25677.000000 30180.000000
25690.000000 30220.000000
25709.000000 30269.000000
25726.000000 30320.000000
25748.000000 30375.000000
25773.000000 30433.000000
25793.000000 30481.000000
25807.000000 30520.000000
25820.000000 30549.000000
25826.000000 30566.000000
25831.000000 30575.000000
25835.000000 30589.000000
25839.000000 30608.000000
25847.000000 30625.000000
25851.000000 30637.000000
25853.000000 30649.000000
25856.000000 30651.000000
25848.000000 30642.000000
25840.000000 30624.000000
25832.000000 30596.000000
25813.000000 30564.000000
25804.000000 30537.000000
25795.000000 30509.000000
25786.000000 30482.000000
25771.000000 30461.000000
25769.000000 30450.000000
25765.000000 30451.000000
25768.000000 30452.000000
25770.000000 30459.000000
25776.000000 30477.000000
25783.000000 30490.000000
25789.000000 30509.000000
25797.000000 30520.000000
25799.000000 30533.000000
25803.000000 30535.000000
25801.000000 30538.000000
25802.000000 30540.000000
25804.000000 30556.000000
25814.000000 30573.000000
25826.000000 30603.000000
25834.000000 30633.000000
25849.000000 30661.000000
25858.000000 30684.000000
25868.000000 30707.000000
25871.000000 30716.000000
25870.000000 30723.000000
25878.000000 30731.000000
25882.000000 30744.000000
25890.000000 30763.000000
25900.000000 30791.000000
25908.000000 30812.000000
25916.000000 30835.000000
25920.000000 30848.000000
25921.000000 30858.000000
25918.000000 30860.000000
25920.000000 30866.000000
25919.000000 30867.000000
25926.000000 30877.000000
25929.000000 30882.000000
25931.000000 30892.000000
25934.000000 30903.000000
25937.000000 30909.000000
25932.000000 30906.000000
25789.000000 30509.000000
25933.000000 30917.000000
25937.000000 30927.000000
25938.000000 30929.000000
25939.000000 30936.000000
25938.000000 30938.000000
25938.000000 30937.000000
25935.000000 30937.000000
25934.000000 30925.000000
25928.000000 30914.000000
25924.000000 30903.000000
25918.000000 30887.000000
25905.000000 30860.000000
25876.000000 30778.000000
25821.000000 30638.000000
25755.000000 30470.000000
25690.000000 30309.000000
25636.000000 30180.000000
25598.000000 30091.000000
25569.000000 30034.000000
25558.000000 30003.000000
25551.000000 29986.000000
25553.000000 29983.000000
25558.000000 29992.000000
25563.000000 30000.000000
25572.000000 30013.000000
25575.000000 30025.000000
25583.000000 30044.000000
25596.000000 30066.000000
25610.000000 30104.000000
25622.000000 30147.000000
25641.000000 30192.000000
25659.000000 30247.000000
25676.000000 30288.000000
25693.000000 30336.000000
25705.000000 30375.000000
25718.000000 30408.000000
25731.000000 30438.000000
25742.000000 30464.000000
25752.000000 30486.000000
25754.000000 30495.000000
25755.000000 30496.000000
25750.000000 30482.000000
25742.000000 30463.000000
25731.000000 30439.000000
25719.000000 30414.000000
25710.000000 30382.000000
25697.000000 30357.000000
25689.000000 30338.000000
25681.000000 30316.000000
25672.000000 30299.000000
25667.000000 30283.000000
25663.000000 30273.000000
25663.000000 30270.000000
25664.000000 30270.000000
25666.000000 30282.000000
25671.000000 30293.000000
25676.000000 30306.000000
25685.000000 30321.000000
25694.000000 30338.000000
25699.000000 30356.000000
25706.000000 30378.000000
25713.000000 30397.000000
25722.000000 30416.000000
25729.000000 30438.000000
25741.000000 30461.000000
25750.000000 30481.000000
25757.000000 30503.000000
25766.000000 30518.000000
25769.000000 30531.000000
25772.000000 30533.000000
25772.000000 30537.000000
25771.000000 30539.000000
25771.000000 30553.000000
25777.000000 30572.000000
25790.000000 30600.000000
25798.000000 30629.000000
25805.000000 30659.000000
25811.000000 30681.000000
25819.000000 30702.000000
25825.000000 30714.000000
25830.000000 30726.000000
25831.000000 30729.000000
25834.000000 30735.000000
25833.000000 30735.000000
25839.000000 30748.000000
25842.000000 30767.000000
25852.000000 30794.000000
25863.000000 30828.000000
25871.000000 30856.000000
25878.000000 30881.000000
25887.000000 30905.000000
25891.000000 30922.000000
25899.000000 30938.000000
25900.000000 30938.000000
25888.000000 30914.000000
25859.000000 30823.000000
25796.000000 30664.000000
25722.000000 30477.000000
25653.000000 30308.000000
25602.000000 30185.000000
25564.000000 30091.000000
25542.000000 30031.000000
25530.000000 30007.000000
25522.000000 29987.000000
25518.000000 29976.000000
25516.000000 29977.000000
25520.000000 29978.000000
25525.000000 29986.000000
25534.000000 30009.000000
25542.000000 30033.000000
25558.000000 30069.000000
25574.000000 30114.000000
25595.000000 30165.000000
25611.000000 30211.000000
25632.000000 30258.000000
25641.000000 30293.000000
25654.000000 30325.000000
25667.000000 30354.000000
25677.000000 30379.000000
25687.000000 30410.000000
25702.000000 30441.000000
25709.000000 30469.000000
25721.000000 30491.000000
25723.000000 30502.000000
25722.000000 30502.000000
25715.000000 30494.000000
25710.000000 30479.000000
25701.000000 30456.000000
25693.000000 30435.000000
25680.000000 30409.000000
25673.000000 30389.000000
25664.000000 30368.000000
25666.000000 30364.000000
25664.000000 30367.000000
25665.000000 30374.000000
25670.000000 30382.000000
25673.000000 30394.000000
25678.000000 30406.000000
25688.000000 30422.000000
25694.000000 30446.000000
25704.000000 30471.000000
25715.000000 30501.000000
25728.000000 30531.000000
25736.000000 30563.000000
25750.000000 30590.000000
25759.000000 30619.000000
25771.000000 30641.000000
25779.000000 30661.000000
25789.000000 30676.000000
25793.000000 30693.000000
25801.000000 30713.000000
25808.000000 30733.000000
25818.000000 30750.000000
25820.000000 30763.000000
25822.000000 30774.000000
25824.000000 30779.000000
25829.000000 30785.000000
25827.000000 30788.000000
25827.000000 30788.000000
25829.000000 30788.000000
25832.000000 30795.000000
25833.000000 30810.000000
25842.000000 30825.000000
25847.000000 30846.000000
25854.000000 30864.000000
25861.000000 30877.000000
25863.000000 30880.000000
25863.000000 30884.000000
25863.000000 30883.000000
25865.000000 30894.000000
25868.000000 30903.000000
25870.000000 30914.000000
25875.000000 30924.000000
25879.000000 30931.000000
25880.000000 30934.000000
25881.000000 30940.000000
25885.000000 30944.000000
25884.000000 30952.000000
25890.000000 30956.000000
25894.000000 30970.000000
25898.000000 30979.000000
25903.000000 30991.000000
25892.000000 30969.000000
25864.000000 30888.000000
25801.000000 30730.000000
25726.000000 30548.000000
25662.000000 30378.000000
25611.000000 30253.000000
25573.000000 30164.000000
25548.000000 30102.000000
25537.000000 30068.000000
25533.000000 30050.000000
25530.000000 30046.000000
25531.000000 30052.000000
25536.000000 30061.000000
25546.000000 30086.000000
25557.000000 30116.000000
25572.000000 30151.000000
25585.000000 30189.000000
25604.000000 30228.000000
25620.000000 30271.000000
25638.000000 30313.000000
25649.000000 30352.000000
25665.000000 30385.000000
25675.000000 30418.000000
25689.000000 30448.000000
25700.000000 30479.000000
25712.000000 30510.000000
25720.000000 30533.000000
25732.000000 30564.000000
25741.000000 30590.000000
25749.000000 30609.000000
25752.000000 30616.000000
25752.000000 30613.000000
25743.000000 30598.000000
25733.000000 30574.000000
25722.000000 30545.000000
25711.000000 30517.000000
25704.000000 30493.000000
25696.000000 30478.000000
25696.000000 30466.000000
25694.000000 30466.000000
25697.000000 30462.000000
25699.000000 30471.000000
25699.000000 30473.000000
25702.000000 30484.000000
25707.000000 30494.000000
25714.000000 30515.000000
25719.000000 30527.000000
25731.000000 30545.000000
25736.000000 30567.000000
25744.000000 30587.000000
25755.000000 30610.000000
25766.000000 30635.000000
25777.000000 30659.000000
25787.000000 30686.000000
25793.000000 30713.000000
25801.000000 30737.000000
25808.000000 30756.000000
25816.000000 30777.000000
25821.000000 30792.000000
25827.000000 30813.000000
25833.000000 30826.000000
25840.000000 30848.000000
25848.000000 30862.000000
25852.000000 30875.000000
25855.000000 30884.000000
25859.000000 30894.000000
25860.000000 30896.000000
25867.000000 30910.000000
25876.000000 30925.000000
25883.000000 30947.000000
25892.000000 30972.000000
25903.000000 30995.000000
25908.000000 31017.000000
25918.000000 31028.000000
25917.000000 31033.000000
25913.000000 31032.000000
25913.000000 31028.000000
25911.000000 31031.000000
25911.000000 31030.000000
25911.000000 31032.000000
25914.000000 31040.000000
25922.000000 31054.000000
25924.000000 31072.000000
25933.000000 31096.000000
25938.000000 31115.000000
25943.000000 31128.000000
25944.000000 31129.000000
25926.000000 31086.000000
25886.000000 30979.000000
25820.000000 30808.000000
25745.000000 30608.000000
25679.000000 30449.000000
25629.000000 30327.000000
25599.000000 30246.000000
25580.000000 30209.000000
25570.000000 30187.000000
25570.000000 30183.000000
25579.000000 30193.000000
25587.000000 30214.000000
25599.000000 30242.000000
25611.000000 30272.000000
25625.000000 30305.000000
25639.000000 30342.000000
25656.000000 30381.000000
25669.000000 30425.000000
25689.000000 30467.000000
25703.000000 30509.000000
25720.000000 30546.000000
25729.000000 30576.000000
25739.000000 30603.000000
25753.000000 30633.000000
25768.000000 30670.000000
25777.000000 30710.000000
25790.000000 30736.000000
25799.000000 30755.000000
25802.000000 30765.000000
25797.000000 30759.000000
25791.000000 30742.000000
25777.000000 30713.000000
25764.000000 30678.000000
25747.000000 30636.000000
25731.000000 30601.000000
25719.000000 30574.000000
25711.000000 30553.000000
25704.000000 30535.000000
25697.000000 30522.000000
25696.000000 30516.000000
25695.000000 30514.000000
25696.000000 30521.000000
25700.000000 30530.000000
25710.000000 30551.000000
25715.000000 30571.000000
25727.000000 30599.000000
25739.000000 30625.000000
25752.000000 30658.000000
25764.000000 30686.000000
25771.000000 30706.000000
25779.000000 30730.000000
25790.000000 30759.000000
25796.000000 30775.000000
25805.000000 30796.000000
25808.000000 30807.000000
25815.000000 30829.000000
25824.000000 30852.000000
25834.000000 30878.000000
25838.000000 30900.000000
25849.000000 30921.000000
25854.000000 30936.000000
25857.000000 30953.000000
25859.000000 30960.000000
25863.000000 30969.000000
25863.000000 30972.000000
25865.000000 30976.000000
25869.000000 30986.000000
25871.000000 30991.000000
25872.000000 30993.000000
25873.000000 30996.000000
25869.000000 30996.000000
25873.000000 31000.000000
25875.000000 31005.000000
25876.000000 31014.000000
25882.000000 31021.000000
25887.000000 31027.000000
25885.000000 31033.000000
25887.000000 31036.000000
25880.000000 31024.000000
25861.000000 30969.000000
25816.000000 30858.000000
25749.000000 30692.000000
25674.000000 30500.000000
25610.000000 30345.000000
25567.000000 30229.000000
25533.000000 30156.000000
25518.000000 30111.000000
25506.000000 30084.000000
25504.000000 30073.000000
25498.000000 30069.000000
25503.000000 30069.000000
25506.000000 30081.000000
25512.000000 30096.000000
25520.000000 30116.000000
25527.000000 30135.000000
25541.000000 30161.000000
25551.000000 30187.000000
25563.000000 30212.000000
25572.000000 30230.000000
25579.000000 30249.000000
25586.000000 30262.000000
25592.000000 30270.000000
25594.000000 30281.000000
25599.000000 30292.000000
25605.000000 30304.000000
25612.000000 30316.000000
25611.000000 30322.000000
25614.000000 30324.000000
25608.000000 30316.000000
25601.000000 30297.000000
25591.000000 30272.000000
25584.000000 30254.000000
25578.000000 30241.000000
25570.000000 30224.000000
25566.000000 30213.000000
25559.000000 30202.000000
25559.000000 30196.000000
25560.000000 30193.000000
25558.000000 30193.000000
25559.000000 30196.000000
25559.000000 30204.000000
25567.000000 30215.000000
25572.000000 30223.000000
25572.000000 30236.000000
25579.000000 30251.000000
25588.000000 30266.000000
25592.000000 30283.000000
25602.000000 30305.000000
25615.000000 30323.000000
25621.000000 30342.000000
25629.000000 30364.000000
25632.000000 30383.000000
25643.000000 30402.000000
25649.000000 30422.000000
25659.000000 30434.000000
25661.000000 30442.000000
25661.000000 30450.000000
25660.000000 30452.000000
25664.000000 30461.000000
25669.000000 30466.000000
25670.000000 30476.000000
25673.000000 30481.000000
25676.000000 30493.000000
25683.000000 30506.000000
25682.000000 30517.000000
25695.000000 30537.000000
25701.000000 30555.000000
25710.000000 30576.000000
25716.000000 30596.000000
25721.000000 30606.000000
25724.000000 30610.000000
25723.000000 30609.000000
25720.000000 30608.000000
25719.000000 30608.000000
25719.000000 30611.000000
25722.000000 30615.000000
25725.000000 30629.000000
25730.000000 30636.000000
25740.000000 30655.000000
25743.000000 30670.000000
25750.000000 30695.000000
25758.000000 30710.000000
25767.000000 30735.000000
25776.000000 30753.000000
25784.000000 30782.000000
25796.000000 30805.000000
25809.000000 30822.000000
25802.000000 30806.000000
25769.000000 30723.000000
25713.000000 30581.000000
25646.000000 30422.000000
25587.000000 30272.000000
25541.000000 30178.000000
25515.000000 30112.000000
25494.000000 30062.000000
25472.000000 30023.000000
25462.000000 29990.000000
25450.000000 29975.000000
25452.000000 29980.000000
25459.000000 29998.000000
25472.000000 30032.000000
25486.000000 30073.000000
25508.000000 30116.000000
25522.000000 30159.000000
25538.000000 30199.000000
25554.000000 30230.000000
25563.000000 30260.000000
25572.000000 30280.000000
25579.000000 30295.000000
25581.000000 30301.000000
25581.000000 30303.000000
25581.000000 30301.000000
25582.000000 30309.000000
25585.000000 30322.000000
25591.000000 30328.000000
25590.000000 30332.000000
25590.000000 30329.000000
25584.000000 30324.000000
25581.000000 30321.000000
25575.000000 30308.000000
25566.000000 30288.000000
25550.000000 30253.000000
25529.000000 30215.000000
25516.000000 30178.000000
25504.000000 30151.000000
25490.000000 30122.000000
25481.000000 30105.000000
25478.000000 30092.000000
25474.000000 30080.000000
25472.000000 30077.000000
25474.000000 30080.000000
25479.000000 30088.000000
25483.000000 30104.000000
25494.000000 30123.000000
25505.000000 30159.000000
25519.000000 30195.000000
25536.000000 30239.000000
25551.000000 30274.000000
25566.000000 30316.000000
25579.000000 30356.000000
25595.000000 30395.000000
25605.000000 30428.000000
25618.000000 30454.000000
25626.000000 30473.000000
25635.000000 30498.000000
25641.000000 30524.000000
25654.000000 30553.000000
25665.000000 30579.000000
25672.000000 30601.000000
25674.000000 30618.000000
25682.000000 30632.000000
25683.000000 30639.000000
25686.000000 30647.000000
25686.000000 30648.000000
25686.000000 30655.000000
25689.000000 30658.000000
25689.000000 30660.000000
25694.000000 30673.000000
25698.000000 30689.000000
25704.000000 30708.000000
25711.000000 30723.000000
25719.000000 30742.000000
25724.000000 30759.000000
25729.000000 30775.000000
25734.000000 30789.000000
25741.000000 30803.000000
25742.000000 30806.000000
25732.000000 30776.000000
25698.000000 30680.000000
25635.000000 30528.000000
25565.000000 30350.000000
25500.000000 30193.000000
25456.000000 30077.000000
25422.000000 30002.000000
25401.000000 29958.000000
25391.000000 29926.000000
25381.000000 29904.000000
25380.000000 29894.000000
25377.000000 29894.000000
25384.000000 29907.000000
25392.000000 29928.000000
25405.000000 29961.000000
25420.000000 29998.000000
25439.000000 30045.000000
25454.000000 30087.000000
25471.000000 30128.000000
25484.000000 30164.000000
25498.000000 30199.000000
25509.000000 30222.000000
25518.000000 30237.000000
25522.000000 30255.000000
25530.000000 30273.000000
25535.000000 30287.000000
25541.000000 30310.000000
25547.000000 30320.000000
25554.000000 30337.000000
25555.000000 30337.000000
25549.000000 30332.000000
25543.000000 30310.000000
25535.000000 30293.000000
25523.000000 30268.000000
25514.000000 30243.000000
25501.000000 30213.000000
25491.000000 30186.000000
25481.000000 30159.000000
25475.000000 30147.000000
25469.000000 30137.000000
25471.000000 30138.000000
25475.000000 30143.000000
25485.000000 30155.000000
25486.000000 30171.000000
25496.000000 30195.000000
25506.000000 30222.000000
25520.000000 30257.000000
25532.000000 30297.000000
25550.000000 30333.000000
25562.000000 30368.000000
25575.000000 30403.000000
25586.000000 30431.000000
25599.000000 30463.000000
25611.000000 30498.000000
25626.000000 30538.000000
25644.000000 30580.000000
25657.000000 30618.000000
25666.000000 30646.000000
25673.000000 30662.000000
25678.000000 30677.000000
25683.000000 30690.000000
25682.000000 30699.000000
25690.000000 30711.000000
25696.000000 30724.000000
25700.000000 30743.000000
25706.000000 30758.000000
25715.000000 30776.000000
25720.000000 30789.000000
25727.000000 30796.000000
25726.000000 30803.000000
25727.000000 30802.000000
25726.000000 30799.000000
25725.000000 30799.000000
25722.000000 30792.000000
25722.000000 30788.000000
25717.000000 30776.000000
25713.000000 30765.000000
25710.000000 30758.000000
25711.000000 30763.000000
25716.000000 30774.000000
25719.000000 30788.000000
25726.000000 30804.000000
25734.000000 30823.000000
25744.000000 30846.000000
25749.000000 30865.000000
25757.000000 30883.000000
25762.000000 30889.000000
25752.000000 30861.000000
25713.000000 30761.000000
25646.000000 30596.000000
25573.000000 30412.000000
25506.000000 30249.000000
25455.000000 30129.000000
25418.000000 30044.000000
25395.000000 29986.000000
25382.000000 29955.000000
25374.000000 29939.000000
25374.000000 29939.000000
25380.000000 29953.000000
25392.000000 29979.000000
25406.000000 30019.000000
25426.000000 30066.000000
25448.000000 30117.000000
25467.000000 30174.000000
25487.000000 30230.000000
25511.000000 30278.000000
25527.000000 30324.000000
25543.000000 30358.000000
25558.000000 30397.000000
25569.000000 30427.000000
25582.000000 30462.000000
25595.000000 30491.000000
25608.000000 30528.000000
25619.000000 30564.000000
25632.000000 30593.000000
25641.000000 30610.000000
25646.000000 30618.000000
25641.000000 30617.000000
25642.000000 30610.000000
25639.000000 30605.000000
25634.000000 30588.000000
25626.000000 30573.000000
25622.000000 30561.000000
25622.000000 30550.000000
25615.000000 30544.000000
25618.000000 30544.000000
25619.000000 30545.000000
25621.000000 30550.000000
25624.000000 30562.000000
25629.000000 30569.000000
25633.000000 30585.000000
25637.000000 30602.000000
25648.000000 30626.000000
25659.000000 30656.000000
25669.000000 30682.000000
25678.000000 30708.000000
25689.000000 30732.000000
25698.000000 30756.000000
25709.000000 30781.000000
25543.000000 30358.000000
25721.000000 30819.000000
25730.000000 30834.000000
25733.000000 30847.000000
25739.000000 30860.000000
25743.000000 30876.000000
25750.000000 30888.000000
25753.000000 30905.000000
25757.000000 30910.000000
25755.000000 30916.000000
25761.000000 30933.000000
25767.000000 30942.000000
25771.000000 30950.000000
25773.000000 30952.000000
25770.000000 30954.000000
25769.000000 30949.000000
25768.000000 30950.000000
25770.000000 30947.000000
25763.000000 30945.000000
25762.000000 30936.000000
25765.000000 30940.000000
25763.000000 30939.000000
25762.000000 30947.000000
25765.000000 30953.000000
25775.000000 30969.000000
25779.000000 30982.000000
25785.000000 31002.000000
25793.000000 31021.000000
25802.000000 31040.000000
25811.000000 31063.000000
25814.000000 31087.000000
25816.000000 31089.000000
25808.000000 31060.000000
25772.000000 30966.000000
25713.000000 30821.000000
25638.000000 30631.000000
25570.000000 30454.000000
25512.000000 30314.000000
25468.000000 30209.000000
25443.000000 30147.000000
25428.000000 30118.000000
25424.000000 30110.000000
25434.000000 30124.000000
25446.000000 30155.000000
25463.000000 30195.000000
25483.000000 30245.000000
25506.000000 30298.000000
25525.000000 30347.000000
25547.000000 30400.000000
25563.000000 30449.000000
25585.000000 30502.000000
25605.000000 30554.000000
25625.000000 30609.000000
25644.000000 30663.000000
25666.000000 30716.000000
25682.000000 30762.000000
25703.000000 30811.000000
25717.000000 30848.000000
25729.000000 30874.000000
25735.000000 30886.000000
25734.000000 30884.000000
25733.000000 30875.000000
25724.000000 30859.000000
25714.000000 30836.000000
25705.000000 30814.000000
25692.000000 30784.000000
25682.000000 30756.000000
25670.000000 30729.000000
25661.000000 30704.000000
25655.000000 30681.000000
25645.000000 30670.000000
25646.000000 30672.000000
25650.000000 30685.000000
25657.000000 30708.000000
25671.000000 30734.000000
25680.000000 30760.000000
25692.000000 30791.000000
25703.000000 30821.000000
25713.000000 30846.000000
25723.000000 30871.000000
25732.000000 30895.000000
25741.000000 30915.000000
25749.000000 30939.000000
25754.000000 30953.000000
25762.000000 30975.000000
25768.000000 30991.000000
25774.000000 31011.000000
25782.000000 31026.000000
25786.000000 31040.000000
25793.000000 31056.000000
25794.000000 31067.000000
25799.000000 31080.000000
25807.000000 31089.000000
25808.000000 31098.000000
25812.000000 31113.000000
25813.000000 31120.000000
25820.000000 31132.000000
25819.000000 31141.000000
25827.000000 31151.000000
25829.000000 31157.000000
25832.000000 31168.000000
25835.000000 31177.000000
25836.000000 31180.000000
25838.000000 31188.000000
25840.000000 31194.000000
25843.000000 31202.000000
25848.000000 31208.000000
25851.000000 31217.000000
25856.000000 31228.000000
25860.000000 31241.000000
25864.000000 31252.000000
25870.000000 31268.000000
25869.000000 31266.000000
25857.000000 31236.000000
25826.000000 31154.000000
25770.000000 31016.000000
25697.000000 30837.000000
25617.000000 30643.000000
25554.000000 30475.000000
25502.000000 30346.000000
25466.000000 30260.000000
25446.000000 30214.000000
25441.000000 30202.000000
25445.000000 30208.000000
25452.000000 30235.000000
25475.000000 30293.000000
25504.000000 30365.000000
25539.000000 30453.000000
25575.000000 30539.000000
25610.000000 30632.000000
25639.000000 30712.000000
25667.000000 30783.000000
25693.000000 30846.000000
25711.000000 30893.000000
25724.000000 30934.000000
25734.000000 30958.000000
25739.000000 30973.000000
25750.000000 30987.000000
25756.000000 31011.000000
25768.000000 31032.000000
25774.000000 31042.000000
25772.000000 31048.000000
25769.000000 31044.000000
25768.000000 31038.000000
25763.000000 31033.000000
25762.000000 31030.000000
25761.000000 31036.000000
25768.000000 31050.000000
25772.000000 31064.000000
25774.000000 31079.000000
25777.000000 31085.000000
25774.000000 31084.000000
25774.000000 31079.000000
25769.000000 31083.000000
25775.000000 31085.000000
25775.000000 31099.000000
25786.000000 31121.000000
25795.000000 31144.000000
25805.000000 31166.000000
25815.000000 31183.000000
25817.000000 31205.000000
25824.000000 31223.000000
25833.000000 31244.000000
25842.000000 31269.000000
25849.000000 31286.000000
25858.000000 31302.000000
25863.000000 31316.000000
25872.000000 31328.000000
25877.000000 31341.000000
25882.000000 31358.000000
25888.000000 31372.000000
25893.000000 31386.000000
25900.000000 31400.000000
25908.000000 31410.000000
25913.000000 31426.000000
25924.000000 31450.000000
25929.000000 31468.000000
25938.000000 31484.000000
25937.000000 31491.000000
25937.000000 31497.000000
25943.000000 31496.000000
25939.000000 31502.000000
25935.000000 31497.000000
25939.000000 31503.000000
25941.000000 31504.000000
25946.000000 31515.000000
25948.000000 31524.000000
25954.000000 31529.000000
25955.000000 31538.000000
25958.000000 31543.000000
25962.000000 31547.000000
25963.000000 31550.000000
25962.000000 31553.000000
25964.000000 31556.000000
25960.000000 31556.000000
25963.000000 31556.000000
25952.000000 31529.000000
25923.000000 31464.000000
25873.000000 31348.000000
25813.000000 31209.000000
25755.000000 31062.000000
25708.000000 30946.000000
25668.000000 30863.000000
25646.000000 30806.000000
25633.000000 30780.000000
25633.000000 30774.000000
25641.000000 30793.000000
25655.000000 30828.000000
25670.000000 30872.000000
25693.000000 30925.000000
25716.000000 30985.000000
25742.000000 31052.000000
25763.000000 31111.000000
25786.000000 31164.000000
25803.000000 31207.000000
25819.000000 31241.000000
25832.000000 31271.000000
25837.000000 31289.000000
25842.000000 31308.000000
25855.000000 31328.000000
25863.000000 31355.000000
25875.000000 31377.000000
25881.000000 31398.000000
25885.000000 31406.000000
25884.000000 31408.000000
25879.000000 31406.000000
25879.000000 31399.000000
25873.000000 31394.000000
25869.000000 31382.000000
25867.000000 31368.000000
25856.000000 31345.000000
25846.000000 31324.000000
25843.000000 31309.000000
25836.000000 31300.000000
25837.000000 31299.000000
25834.000000 31296.000000
25833.000000 31298.000000
25838.000000 31306.000000
25843.000000 31318.000000
25847.000000 31335.000000
25853.000000 31347.000000
25859.000000 31359.000000
25860.000000 31369.000000
25864.000000 31383.000000
25871.000000 31398.000000
25872.000000 31407.000000
25877.000000 31416.000000
25878.000000 31421.000000
25880.000000 31425.000000
25878.000000 31426.000000
25881.000000 31430.000000
25885.000000 31438.000000
25888.000000 31453.000000
25890.000000 31456.000000
25893.000000 31465.000000
25896.000000 31470.000000
25896.000000 31474.000000
25898.000000 31474.000000
25898.000000 31481.000000
25897.000000 31478.000000
25894.000000 31478.000000
25896.000000 31475.000000
25891.000000 31477.000000
25890.000000 31473.000000
25891.000000 31476.000000
25891.000000 31473.000000
25890.000000 31470.000000
25888.000000 31465.000000
25887.000000 31467.000000
25890.000000 31465.000000
25894.000000 31473.000000
25895.000000 31475.000000
25900.000000 31481.000000
25902.000000 31485.000000
25903.000000 31488.000000
25900.000000 31487.000000
25895.000000 31475.000000
25877.000000 31430.000000
25836.000000 31337.000000
25778.000000 31193.000000
25712.000000 31024.000000
25649.000000 30870.000000
25598.000000 30758.000000
25564.000000 30669.000000
25537.000000 30607.000000
25527.000000 30584.000000
25530.000000 30593.000000
25542.000000 30620.000000
25561.000000 30667.000000
25582.000000 30724.000000
25611.000000 30786.000000
25634.000000 30848.000000
25655.000000 30909.000000
25677.000000 30963.000000
25696.000000 31014.000000
25712.000000 31061.000000
25729.000000 31100.000000
25744.000000 31133.000000
25756.000000 31161.000000
25765.000000 31184.000000
25775.000000 31210.000000
25783.000000 31229.000000
25790.000000 31245.000000
25795.000000 31254.000000
25797.000000 31253.000000
25792.000000 31248.000000
25787.000000 31236.000000
25781.000000 31221.000000
25771.000000 31203.000000
25762.000000 31183.000000
25755.000000 31163.000000
25749.000000 31143.000000
25741.000000 31126.000000
25735.000000 31112.000000
25734.000000 31108.000000
25732.000000 31105.000000
25735.000000 31114.000000
25740.000000 31123.000000
25751.000000 31144.000000
25754.000000 31162.000000
25761.000000 31180.000000
25765.000000 31200.000000
25776.000000 31223.000000
25782.000000 31239.000000
25790.000000 31260.000000
25795.000000 31273.000000
25803.000000 31291.000000
25809.000000 31302.000000
25814.000000 31318.000000
25820.000000 31332.000000
25828.000000 31347.000000
25832.000000 31362.000000
25839.000000 31375.000000
25841.000000 31388.000000
25847.000000 31395.000000
25847.000000 31404.000000
25851.000000 31411.000000
25854.000000 31419.000000
25854.000000 31423.000000
25855.000000 31424.000000
25857.000000 31428.000000
25857.000000 31429.000000
25857.000000 31432.000000
25857.000000 31431.000000
25859.000000 31434.000000
25857.000000 31438.000000
25856.000000 31439.000000
25858.000000 31440.000000
25861.000000 31445.000000
25860.000000 31446.000000
25863.000000 31449.000000
25863.000000 31453.000000
25867.000000 31458.000000
25869.000000 31462.000000
25872.000000 31463.000000
25871.000000 31462.000000
25859.000000 31438.000000
25837.000000 31380.000000
25789.000000 31263.000000
25727.000000 31102.000000
25658.000000 30934.000000
25605.000000 30798.000000
25563.000000 30694.000000
25529.000000 30613.000000
25510.000000 30566.000000
25501.000000 30544.000000
25504.000000 30550.000000
25518.000000 30579.000000
25536.000000 30623.000000
25559.000000 30683.000000
25583.000000 30752.000000
25610.000000 30823.000000
25638.000000 30889.000000
25661.000000 30952.000000
25683.000000 31004.000000
25698.000000 31046.000000
25713.000000 31084.000000
25725.000000 31115.000000
25735.000000 31142.000000
25747.000000 31171.000000
25758.000000 31197.000000
25766.000000 31224.000000
25773.000000 31238.000000
25780.000000 31251.000000
25783.000000 31258.000000
25780.000000 31256.000000
25779.000000 31248.000000
25774.000000 31236.000000
25765.000000 31214.000000
25753.000000 31193.000000
25743.000000 31175.000000
25740.000000 31155.000000
25733.000000 31135.000000
25728.000000 31122.000000
25726.000000 31119.000000
25728.000000 31121.000000
25734.000000 31130.000000
25738.000000 31145.000000
25745.000000 31160.000000
25748.000000 31182.000000
25761.000000 31204.000000
25766.000000 31224.000000
25775.000000 31246.000000
25783.000000 31269.000000
25796.000000 31288.000000
25803.000000 31309.000000
25808.000000 31326.000000
25814.000000 31343.000000
25822.000000 31360.000000
25829.000000 31375.000000
25829.000000 31383.000000
25838.000000 31397.000000
25841.000000 31404.000000
25843.000000 31413.000000
25845.000000 31416.000000
25846.000000 31425.000000
25848.000000 31430.000000
25850.000000 31431.000000
25847.000000 31427.000000
25845.000000 31429.000000
25845.000000 31427.000000
25847.000000 31426.000000
25845.000000 31423.000000
25848.000000 31427.000000
25847.000000 31432.000000
25855.000000 31433.000000
25852.000000 31441.000000
25855.000000 31445.000000
25856.000000 31448.000000
25858.000000 31454.000000
25856.000000 31458.000000
25862.000000 31460.000000
25862.000000 31457.000000
25857.000000 31445.000000
25836.000000 31394.000000
25798.000000 31299.000000
25742.000000 31158.000000
25678.000000 30994.000000
25620.000000 30849.000000
25571.000000 30728.000000
25528.000000 30627.000000
25502.000000 30556.000000
25482.000000 30505.000000
25475.000000 30490.000000
25482.000000 30501.000000
25498.000000 30537.000000
25519.000000 30586.000000
25544.000000 30657.000000
25576.000000 30732.000000
25599.000000 30804.000000
25629.000000 30869.000000
25655.000000 30930.000000
25674.000000 30983.000000
25689.000000 31028.000000
25708.000000 31070.000000
25721.000000 31106.000000
25732.000000 31136.000000
25744.000000 31167.000000
25756.000000 31197.000000
25767.000000 31224.000000
25775.000000 31240.000000
25778.000000 31250.000000
25777.000000 31248.000000
25775.000000 31241.000000
25767.000000 31224.000000
25762.000000 31209.000000
25755.000000 31191.000000
25747.000000 31172.000000
25738.000000 31157.000000
25736.000000 31145.000000
25730.000000 31143.000000
25730.000000 31144.000000
25734.000000 31151.000000
25740.000000 31159.000000
25745.000000 31172.000000
25749.000000 31187.000000
25754.000000 31202.000000
25762.000000 31218.000000
25768.000000 31235.000000
25773.000000 31252.000000
25780.000000 31268.000000
25786.000000 31286.000000
25795.000000 31302.000000
25800.000000 31318.000000
25802.000000 31333.000000
25811.000000 31343.000000
25816.000000 31354.000000
25819.000000 31367.000000
25822.000000 31376.000000
25744.000000 31167.000000
25827.000000 31385.000000
25829.000000 31387.000000
25828.000000 31394.000000
25831.000000 31395.000000
25831.000000 31396.000000
25829.000000 31398.000000
25832.000000 31401.000000
25833.000000 31398.000000
25830.000000 31400.000000
25832.000000 31402.000000
25832.000000 31405.000000
25836.000000 31413.000000
25836.000000 31418.000000
25841.000000 31425.000000
25847.000000 31432.000000
25846.000000 31434.000000
25843.000000 31432.000000
25836.000000 31415.000000
25815.000000 31361.000000
25768.000000 31246.000000
25705.000000 31091.000000
25638.000000 30924.000000
25583.000000 30775.000000
25530.000000 30650.000000
25494.000000 30558.000000
25469.000000 30490.000000
25456.000000 30459.000000
25461.000000 30462.000000
25468.000000 30488.000000
25486.000000 30531.000000
25511.000000 30590.000000
25533.000000 30654.000000
25562.000000 30735.000000
25588.000000 30805.000000
25621.000000 30879.000000
25640.000000 30931.000000
25657.000000 30980.000000
25671.000000 31013.000000
25684.000000 31046.000000
25695.000000 31072.000000
25704.000000 31100.000000
25715.000000 31129.000000
25728.000000 31154.000000
25737.000000 31171.000000
25739.000000 31179.000000
25735.000000 31180.000000
25732.000000 31174.000000
25728.000000 31162.000000
25723.000000 31148.000000
25715.000000 31124.000000
25705.000000 31104.000000
25696.000000 31082.000000
25689.000000 31061.000000
25682.000000 31043.000000
25677.000000 31033.000000
25676.000000 31029.000000
25677.000000 31033.000000
25676.000000 31034.000000
25683.000000 31049.000000
25690.000000 31062.000000
25696.000000 31083.000000
25702.000000 31096.000000
25706.000000 31113.000000
25716.000000 31132.000000
25725.000000 31147.000000
25730.000000 31166.000000
25739.000000 31186.000000
25749.000000 31207.000000
25754.000000 31228.000000
25763.000000 31245.000000
25768.000000 31263.000000
25773.000000 31278.000000
25778.000000 31293.000000
25785.000000 31308.000000
25791.000000 31319.000000
25795.000000 31331.000000
25801.000000 31340.000000
25802.000000 31348.000000
25808.000000 31353.000000
25809.000000 31357.000000
25809.000000 31363.000000
25809.000000 31363.000000
25810.000000 31367.000000
25809.000000 31364.000000
25813.000000 31365.000000
25809.000000 31365.000000
25812.000000 31371.000000
25811.000000 31373.000000
25813.000000 31380.000000
25817.000000 31392.000000
25822.000000 31406.000000
25826.000000 31416.000000
25830.000000 31421.000000
25830.000000 31426.000000
25830.000000 31417.000000
25814.000000 31391.000000
25784.000000 31305.000000
25731.000000 31163.000000
25657.000000 30981.000000
25588.000000 30813.000000
25530.000000 30663.000000
25483.000000 30541.000000
25445.000000 30452.000000
25426.000000 30400.000000
25421.000000 30383.000000
25425.000000 30389.000000
25439.000000 30415.000000
25458.000000 30461.000000
25478.000000 30517.000000
25503.000000 30580.000000
25527.000000 30642.000000
25551.000000 30710.000000
25574.000000 30774.000000
25596.000000 30825.000000
25613.000000 30868.000000
25625.000000 30903.000000
25638.000000 30930.000000
25647.000000 30954.000000
25658.000000 30980.000000
25669.000000 31010.000000
25680.000000 31040.000000
25689.000000 31062.000000
25695.000000 31076.000000
25696.000000 31081.000000
25695.000000 31074.000000
25691.000000 31060.000000
25683.000000 31045.000000
25673.000000 31029.000000
25663.000000 31013.000000
25659.000000 30995.000000
25654.000000 30983.000000
25650.000000 30978.000000
25648.000000 30975.000000
25649.000000 30980.000000
25654.000000 30989.000000
25658.000000 31000.000000
25666.000000 31013.000000
25672.000000 31030.000000
25676.000000 31041.000000
25679.000000 31060.000000
25689.000000 31078.000000
25695.000000 31095.000000
25701.000000 31112.000000
25705.000000 31132.000000
25711.000000 31144.000000
25722.000000 31161.000000
25727.000000 31173.000000
25732.000000 31190.000000
25739.000000 31205.000000
25749.000000 31225.000000
25752.000000 31236.000000
25760.000000 31249.000000
25760.000000 31260.000000
25763.000000 31268.000000
25762.000000 31271.000000
25766.000000 31276.000000
25767.000000 31283.000000
25772.000000 31289.000000
25774.000000 31299.000000
25781.000000 31315.000000
25787.000000 31329.000000
25659.000000 30995.000000
25793.000000 31341.000000
25797.000000 31344.000000
25791.000000 31344.000000
25796.000000 31349.000000
25799.000000 31356.000000
25800.000000 31367.000000
25803.000000 31371.000000
25803.000000 31373.000000
25804.000000 31377.000000
25799.000000 31365.000000
25780.000000 31316.000000
25737.000000 31205.000000
25674.000000 31038.000000
25602.000000 30852.000000
25530.000000 30676.000000
25471.000000 30526.000000
25426.000000 30413.000000
25398.000000 30337.000000
25384.000000 30297.000000
25380.000000 30292.000000
25388.000000 30308.000000
25398.000000 30343.000000
25419.000000 30388.000000
25443.000000 30446.000000
25468.000000 30517.000000
25498.000000 30592.000000
25525.000000 30659.000000
25551.000000 30721.000000
25572.000000 30779.000000
25590.000000 30824.000000
25603.000000 30868.000000
25616.000000 30898.000000
25627.000000 30926.000000
25636.000000 30953.000000
25644.000000 30981.000000
25654.000000 31000.000000
25661.000000 31016.000000
25667.000000 31037.000000
25672.000000 31049.000000
25676.000000 31056.000000
25673.000000 31051.000000
25671.000000 31045.000000
25662.000000 31028.000000
25654.000000 31011.000000
25647.000000 30993.000000
25641.000000 30983.000000
25638.000000 30973.000000
25637.000000 30971.000000
25638.000000 30972.000000
25641.000000 30983.000000
25644.000000 30993.000000
25649.000000 31006.000000
25653.000000 31019.000000
25661.000000 31036.000000
25667.000000 31055.000000
25675.000000 31074.000000
25681.000000 31093.000000
25691.000000 31117.000000
25698.000000 31140.000000
25711.000000 31167.000000
25720.000000 31192.000000
25727.000000 31213.000000
25734.000000 31232.000000
25744.000000 31249.000000
25750.000000 31266.000000
25760.000000 31285.000000
25760.000000 31295.000000
25764.000000 31301.000000
25772.000000 31308.000000
25768.000000 31314.000000
25771.000000 31317.000000
25767.000000 31320.000000
25772.000000 31325.000000
25773.000000 31329.000000
25774.000000 31334.000000
25776.000000 31339.000000
25775.000000 31344.000000
25778.000000 31343.000000
25781.000000 31345.000000
25777.000000 31343.000000
25779.000000 31344.000000
25780.000000 31345.000000
25778.000000 31345.000000
25777.000000 31346.000000
25782.000000 31347.000000
25782.000000 31349.000000
25785.000000 31360.000000
25784.000000 31367.000000
25789.000000 31373.000000
25789.000000 31377.000000
25796.000000 31382.000000
25793.000000 31386.000000
25788.000000 31377.000000
25772.000000 31330.000000
25729.000000 31219.000000
25660.000000 31048.000000
25590.000000 30864.000000
25520.000000 30689.000000
25460.000000 30531.000000
25417.000000 30419.000000
25387.000000 30344.000000
25369.000000 30302.000000
25368.000000 30291.000000
25373.000000 30305.000000
25390.000000 30338.000000
25409.000000 30387.000000
25430.000000 30446.000000
25459.000000 30509.000000
25481.000000 30579.000000
25508.000000 30645.000000
25534.000000 30714.000000
25552.000000 30766.000000
25572.000000 30813.000000
25585.000000 30851.000000
25599.000000 30889.000000
25608.000000 30915.000000
25619.000000 30945.000000
25632.000000 30973.000000
25643.000000 31000.000000
25650.000000 31021.000000
25654.000000 31031.000000
25653.000000 31033.000000
25654.000000 31027.000000
25649.000000 31012.000000
25640.000000 30993.000000
25630.000000 30968.000000
25620.000000 30947.000000
25612.000000 30926.000000
25608.000000 30912.000000
25602.000000 30901.000000
25600.000000 30900.000000
25603.000000 30905.000000
25604.000000 30912.000000
25609.000000 30923.000000
25615.000000 30941.000000
25622.000000 30957.000000
25629.000000 30977.000000
25638.000000 31000.000000
25644.000000 31021.000000
25652.000000 31041.000000
25662.000000 31064.000000
25667.000000 31079.000000
25674.000000 31102.000000
25681.000000 31116.000000
25684.000000 31131.000000
25691.000000 31141.000000
25699.000000 31157.000000
25705.000000 31174.000000
25712.000000 31189.000000
25717.000000 31203.000000
25724.000000 31219.000000
25728.000000 31229.000000
25730.000000 31242.000000
25736.000000 31250.000000
25740.000000 31263.000000
25739.000000 31269.000000
25748.000000 31277.000000
25751.000000 31288.000000
25757.000000 31296.000000
25757.000000 31298.000000
25758.000000 31306.000000
25759.000000 31306.000000
25758.000000 31304.000000
25759.000000 31309.000000
25758.000000 31313.000000
25762.000000 31314.000000
25764.000000 31321.000000
25767.000000 31329.000000
25770.000000 31338.000000
25770.000000 31342.000000
25774.000000 31350.000000
25775.000000 31359.000000
25782.000000 31370.000000
25781.000000 31370.000000
25779.000000 31359.000000
25760.000000 31306.000000
25719.000000 31209.000000
25663.000000 31061.000000
25598.000000 30901.000000
25534.000000 30745.000000
25483.000000 30614.000000
25448.000000 30522.000000
25427.000000 30465.000000
25414.000000 30434.000000
25417.000000 30439.000000
25430.000000 30468.000000
25450.000000 30510.000000
25471.000000 30575.000000
25500.000000 30642.000000
25526.000000 30712.000000
25552.000000 30778.000000
25573.000000 30835.000000
25589.000000 30887.000000
25604.000000 30928.000000
25621.000000 30961.000000
25631.000000 30994.000000
25644.000000 31018.000000
25653.000000 31047.000000
25664.000000 31075.000000
25673.000000 31100.000000
25684.000000 31120.000000
25688.000000 31128.000000
25686.000000 31131.000000
25685.000000 31122.000000
25679.000000 31110.000000
25670.000000 31092.000000
25661.000000 31068.000000
25649.000000 31046.000000
25645.000000 31030.000000
25637.000000 31008.000000
25629.000000 30998.000000
25627.000000 30992.000000
25627.000000 30994.000000
25632.000000 30996.000000
25633.000000 31003.000000
25635.000000 31016.000000
25640.000000 31032.000000
25652.000000 31058.000000
25662.000000 31082.000000
25672.000000 31104.000000
25679.000000 31122.000000
25687.000000 31152.000000
25695.000000 31172.000000
25704.000000 31192.000000
25706.000000 31204.000000
25715.000000 31221.000000
25723.000000 31239.000000
25735.000000 31260.000000
25740.000000 31274.000000
25744.000000 31287.000000
25750.000000 31296.000000
25751.000000 31305.000000
25752.000000 31309.000000
25751.000000 31314.000000
25751.000000 31316.000000
25754.000000 31316.000000
25754.000000 31322.000000
25757.000000 31327.000000
25759.000000 31330.000000
25760.000000 31335.000000
25763.000000 31337.000000
25764.000000 31344.000000
25765.000000 31342.000000
25767.000000 31348.000000
25767.000000 31347.000000
25768.000000 31351.000000
25768.000000 31356.000000
25771.000000 31358.000000
25776.000000 31366.000000
25780.000000 31378.000000
25780.000000 31388.000000
25787.000000 31397.000000
25788.000000 31401.000000
25790.000000 31404.000000
25786.000000 31392.000000
25768.000000 31350.000000
25725.000000 31240.000000
25664.000000 31078.000000
25590.000000 30886.000000
25513.000000 30700.000000
25449.000000 30536.000000
25405.000000 30417.000000
25370.000000 30333.000000
25359.000000 30291.000000
25354.000000 30279.000000
25360.000000 30299.000000
25377.000000 30341.000000
25403.000000 30404.000000
25433.000000 30477.000000
25464.000000 30560.000000
25496.000000 30639.000000
25524.000000 30711.000000
25545.000000 30769.000000
25564.000000 30821.000000
25577.000000 30865.000000
25587.000000 30893.000000
25596.000000 30916.000000
25608.000000 30946.000000
25616.000000 30976.000000
25633.000000 31006.000000
25640.000000 31033.000000
25650.000000 31057.000000
25656.000000 31075.000000
25659.000000 31079.000000
25659.000000 31075.000000
25655.000000 31065.000000
25646.000000 31056.000000
25643.000000 31038.000000
25635.000000 31020.000000
25631.000000 31006.000000
25623.000000 30990.000000
25617.000000 30978.000000
25612.000000 30967.000000
25611.000000 30964.000000
25610.000000 30963.000000
25614.000000 30975.000000
25616.000000 30978.000000
25623.000000 30995.000000
25628.000000 31011.000000
25638.000000 31032.000000
25642.000000 31056.000000
25651.000000 31075.000000
25660.000000 31094.000000
25668.000000 31113.000000
25672.000000 31129.000000
25678.000000 31147.000000
25684.000000 31162.000000
25689.000000 31178.000000
25698.000000 31199.000000
25709.000000 31219.000000
25714.000000 31234.000000
25720.000000 31245.000000
25726.000000 31259.000000
25730.000000 31267.000000
25730.000000 31272.000000
25733.000000 31280.000000
25734.000000 31287.000000
25737.000000 31291.000000
25742.000000 31295.000000
25738.000000 31299.000000
25742.000000 31302.000000
25742.000000 31304.000000
25740.000000 31306.000000
25744.000000 31309.000000
25743.000000 31306.000000
25741.000000 31306.000000
25742.000000 31311.000000
25743.000000 31315.000000
25747.000000 31317.000000
25748.000000 31324.000000
25751.000000 31330.000000
25753.000000 31337.000000
25754.000000 31343.000000
25755.000000 31350.000000
25757.000000 31356.000000
25766.000000 31369.000000
25768.000000 31375.000000
25770.000000 31380.000000
25766.000000 31372.000000
25749.000000 31325.000000
25709.000000 31220.000000
25643.000000 31056.000000
25573.000000 30876.000000
25504.000000 30700.000000
25442.000000 30540.000000
25398.000000 30426.000000
25366.000000 30345.000000
25352.000000 30303.000000
25348.000000 30293.000000
25357.000000 30311.000000
25372.000000 30350.000000
25393.000000 30404.000000
25422.000000 30472.000000
25451.000000 30554.000000
25479.000000 30633.000000
25506.000000 30707.000000
25532.000000 30770.000000
25551.000000 30824.000000
25570.000000 30868.000000
25582.000000 30900.000000
25594.000000 30928.000000
25603.000000 30953.000000
25612.000000 30980.000000
25620.000000 31005.000000
25631.000000 31030.000000
25638.000000 31045.000000
25642.000000 31059.000000
25645.000000 31061.000000
25641.000000 31054.000000
25637.000000 31041.000000
25630.000000 31027.000000
25621.000000 31006.000000
25612.000000 30980.000000
25601.000000 30961.000000
25599.000000 30951.000000
25594.000000 30939.000000
25593.000000 30938.000000
25590.000000 30936.000000
25593.000000 30944.000000
25600.000000 30954.000000
25605.000000 30972.000000
25611.000000 30988.000000
25616.000000 31006.000000
25623.000000 31025.000000
25631.000000 31046.000000
25641.000000 31066.000000
25646.000000 31086.000000
25656.000000 31104.000000
25663.000000 31122.000000
25667.000000 31133.000000
25674.000000 31145.000000
25678.000000 31162.000000
25685.000000 31177.000000
25692.000000 31196.000000
25699.000000 31217.000000
25702.000000 31229.000000
25709.000000 31241.000000
25711.000000 31251.000000
25713.000000 31258.000000
25717.000000 31262.000000
25719.000000 31267.000000
25719.000000 31273.000000
25724.000000 31280.000000
25724.000000 31285.000000
25726.000000 31292.000000
25730.000000 31301.000000
25731.000000 31302.000000
25732.000000 31306.000000
25733.000000 31305.000000
25734.000000 31306.000000
25733.000000 31307.000000
25732.000000 31310.000000
25734.000000 31312.000000
25736.000000 31316.000000
25737.000000 31323.000000
25742.000000 31332.000000
25743.000000 31339.000000
25750.000000 31347.000000
25750.000000 31355.000000
25753.000000 31366.000000
25759.000000 31375.000000
25761.000000 31381.000000
25760.000000 31378.000000
25751.000000 31350.000000
25715.000000 31263.000000
25660.000000 31116.000000
25587.000000 30931.000000
25514.000000 30746.000000
25446.000000 30572.000000
25397.000000 30443.000000
25362.000000 30351.000000
25342.000000 30297.000000
25334.000000 30275.000000
25338.000000 30281.000000
25351.000000 30313.000000
25366.000000 30360.000000
25387.000000 30414.000000
25414.000000 30480.000000
25441.000000 30555.000000
25472.000000 30627.000000
25496.000000 30699.000000
25522.000000 30764.000000
25544.000000 30816.000000
25563.000000 30864.000000
25578.000000 30900.000000
25585.000000 30931.000000
25597.000000 30959.000000
25603.000000 30986.000000
25613.000000 31009.000000
25619.000000 31029.000000
25629.000000 31039.000000
25629.000000 31047.000000
25626.000000 31036.000000
25619.000000 31021.000000
25609.000000 31001.000000
25602.000000 30977.000000
25591.000000 30954.000000
25584.000000 30926.000000
25572.000000 30903.000000
25562.000000 30882.000000
25562.000000 30870.000000
25555.000000 30863.000000
25555.000000 30863.000000
25559.000000 30870.000000
25562.000000 30879.000000
25569.000000 30897.000000
25576.000000 30919.000000
25585.000000 30942.000000
25594.000000 30964.000000
25604.000000 30987.000000
25612.000000 31006.000000
25622.000000 31028.000000
25631.000000 31047.000000
25637.000000 31069.000000
25646.000000 31086.000000
25652.000000 31104.000000
25657.000000 31123.000000
25664.000000 31140.000000
25670.000000 31154.000000
25674.000000 31168.000000
25680.000000 31178.000000
25683.000000 31187.000000
25687.000000 31196.000000
25691.000000 31206.000000
25691.000000 31208.000000
25694.000000 31216.000000
25698.000000 31222.000000
25698.000000 31222.000000
25699.000000 31226.000000
25697.000000 31229.000000
25698.000000 31228.000000
25701.000000 31234.000000
25700.000000 31241.000000
25704.000000 31245.000000
25709.000000 31251.000000
25711.000000 31260.000000
25711.000000 31269.000000
25717.000000 31278.000000
25720.000000 31287.000000
25724.000000 31303.000000
25730.000000 31315.000000
25734.000000 31326.000000
25732.000000 31321.000000
25718.000000 31281.000000
25682.000000 31185.000000
25624.000000 31038.000000
25556.000000 30866.000000
25489.000000 30690.000000
25425.000000 30533.000000
25385.000000 30417.000000
25351.000000 30334.000000
25334.000000 30285.000000
25330.000000 30264.000000
25331.000000 30274.000000
25341.000000 30304.000000
25363.000000 30353.000000
25384.000000 30416.000000
25410.000000 30492.000000
25442.000000 30574.000000
25472.000000 30652.000000
25496.000000 30718.000000
25520.000000 30778.000000
25537.000000 30821.000000
25552.000000 30860.000000
25566.000000 30891.000000
25577.000000 30916.000000
25582.000000 30942.000000
25598.000000 30970.000000
25606.000000 30997.000000
25616.000000 31023.000000
25624.000000 31040.000000
25624.000000 31050.000000
25626.000000 31053.000000
25625.000000 31047.000000
25619.000000 31033.000000
25611.000000 31019.000000
25604.000000 30998.000000
25596.000000 30977.000000
25589.000000 30959.000000
25583.000000 30942.000000
25578.000000 30928.000000
25574.000000 30923.000000
25572.000000 30927.000000
25578.000000 30930.000000
25578.000000 30941.000000
25586.000000 30962.000000
25595.000000 30983.000000
25602.000000 31004.000000
25611.000000 31025.000000
25621.000000 31048.000000
25629.000000 31066.000000
25638.000000 31084.000000
25644.000000 31104.000000
25650.000000 31122.000000
25658.000000 31137.000000
25666.000000 31157.000000
25671.000000 31172.000000
25676.000000 31188.000000
25679.000000 31199.000000
25686.000000 31212.000000
25688.000000 31226.000000
25695.000000 31234.000000
25696.000000 31241.000000
25698.000000 31245.000000
25698.000000 31249.000000
25704.000000 31256.000000
25703.000000 31259.000000
25704.000000 31266.000000
25711.000000 31273.000000
25710.000000 31278.000000
25716.000000 31286.000000
25718.000000 31293.000000
25716.000000 31293.000000
25719.000000 31299.000000
25719.000000 31296.000000
25717.000000 31302.000000
25718.000000 31302.000000
25720.000000 31305.000000
25719.000000 31312.000000
25723.000000 31317.000000
25724.000000 31320.000000
25728.000000 31327.000000
25732.000000 31333.000000
25733.000000 31344.000000
25739.000000 31358.000000
25745.000000 31375.000000
25751.000000 31386.000000
25754.000000 31395.000000
25756.000000 31404.000000
25756.000000 31401.000000
25741.000000 31363.000000
25707.000000 31265.000000
25644.000000 31102.000000
25569.000000 30916.000000
25496.000000 30726.000000
25425.000000 30543.000000
25377.000000 30409.000000
25339.000000 30318.000000
25321.000000 30271.000000
25312.000000 30255.000000
25320.000000 30274.000000
25335.000000 30313.000000
25358.000000 30368.000000
25381.000000 30434.000000
25409.000000 30511.000000
25439.000000 30589.000000
25470.000000 30666.000000
25493.000000 30735.000000
25516.000000 30788.000000
25535.000000 30837.000000
25549.000000 30877.000000
25563.000000 30906.000000
25571.000000 30931.000000
25579.000000 30952.000000
25590.000000 30974.000000
25599.000000 31001.000000
25606.000000 31018.000000
25610.000000 31035.000000
25612.000000 31042.000000
25614.000000 31038.000000
25607.000000 31024.000000
25601.000000 31005.000000
25592.000000 30984.000000
25584.000000 30961.000000
25576.000000 30939.000000
25564.000000 30918.000000
25558.000000 30893.000000
25552.000000 30883.000000
25549.000000 30878.000000
25551.000000 30879.000000
25552.000000 30884.000000
25555.000000 30895.000000
25563.000000 30907.000000
25568.000000 30924.000000
25578.000000 30946.000000
25585.000000 30964.000000
25597.000000 30988.000000
25604.000000 31012.000000
25611.000000 31031.000000
25618.000000 31054.000000
25624.000000 31073.000000
25631.000000 31085.000000
25636.000000 31102.000000
25642.000000 31116.000000
25647.000000 31133.000000
25650.000000 31144.000000
25659.000000 31163.000000
25663.000000 31177.000000
25606.000000 31018.000000
25672.000000 31198.000000
25676.000000 31209.000000
25680.000000 31215.000000
25684.000000 31218.000000
25683.000000 31227.000000
25684.000000 31232.000000
25686.000000 31236.000000
25690.000000 31243.000000
25688.000000 31245.000000
25689.000000 31252.000000
25691.000000 31257.000000
25696.000000 31260.000000
25694.000000 31259.000000
25695.000000 31262.000000
25695.000000 31258.000000
25695.000000 31258.000000
25695.000000 31262.000000
25697.000000 31267.000000
25698.000000 31270.000000
25700.000000 31274.000000
25703.000000 31280.000000
25706.000000 31289.000000
25707.000000 31295.000000
25714.000000 31303.000000
25717.000000 31314.000000
25722.000000 31323.000000
25727.000000 31332.000000
25729.000000 31340.000000
25723.000000 31325.000000
25698.000000 31262.000000
25649.000000 31133.000000
25580.000000 30955.000000
25500.000000 30745.000000
25427.000000 30553.000000
25367.000000 30403.000000
25324.000000 30295.000000
25297.000000 30223.000000
25285.000000 30193.000000
25283.000000 30192.000000
25293.000000 30210.000000
25309.000000 30246.000000
25329.000000 30301.000000
25355.000000 30369.000000
25383.000000 30441.000000
25410.000000 30517.000000
25439.000000 30599.000000
25467.000000 30666.000000
25490.000000 30729.000000
25507.000000 30780.000000
25524.000000 30824.000000
25536.000000 30860.000000
25547.000000 30887.000000
25559.000000 30912.000000
25566.000000 30938.000000
25578.000000 30963.000000
25586.000000 30986.000000
25590.000000 30993.000000
25592.000000 30995.000000
25588.000000 30984.000000
25584.000000 30974.000000
25573.000000 30953.000000
25563.000000 30927.000000
25553.000000 30901.000000
25545.000000 30875.000000
25538.000000 30854.000000
25528.000000 30835.000000
25526.000000 30823.000000
25522.000000 30814.000000
25522.000000 30815.000000
25525.000000 30820.000000
25527.000000 30832.000000
25534.000000 30849.000000
25541.000000 30867.000000
25550.000000 30892.000000
25557.000000 30915.000000
25565.000000 30942.000000
25576.000000 30966.000000
25583.000000 30995.000000
25595.000000 31017.000000
25606.000000 31038.000000
25610.000000 31056.000000
25617.000000 31073.000000
25624.000000 31088.000000
25629.000000 31104.000000
25634.000000 31116.000000
25636.000000 31123.000000
25641.000000 31134.000000
25645.000000 31143.000000
25646.000000 31151.000000
25651.000000 31159.000000
25651.000000 31165.000000
25652.000000 31165.000000
25652.000000 31168.000000
25652.000000 31165.000000
25648.000000 31162.000000
25649.000000 31161.000000
25649.000000 31161.000000
25651.000000 31159.000000
25650.000000 31161.000000
25653.000000 31166.000000
25653.000000 31170.000000
25658.000000 31174.000000
25655.000000 31183.000000
25661.000000 31193.000000
25669.000000 31205.000000
25673.000000 31212.000000
25678.000000 31222.000000
25677.000000 31218.000000
25669.000000 31190.000000
25637.000000 31108.000000
25579.000000 30965.000000
25504.000000 30767.000000
25422.000000 30556.000000
25355.000000 30377.000000
25298.000000 30231.000000
25257.000000 30128.000000
25233.000000 30069.000000
25219.000000 30034.000000
25220.000000 30032.000000
25224.000000 30044.000000
25235.000000 30071.000000
25250.000000 30103.000000
25268.000000 30146.000000
25285.000000 30194.000000
25307.000000 30249.000000
25325.000000 30302.000000
25347.000000 30357.000000
25362.000000 30401.000000
25379.000000 30443.000000
25391.000000 30473.000000
25400.000000 30501.000000
25409.000000 30525.000000
25420.000000 30556.000000
25434.000000 30589.000000
25445.000000 30621.000000
25457.000000 30643.000000
25460.000000 30659.000000
25467.000000 30664.000000
25460.000000 30658.000000
25455.000000 30643.000000
25452.000000 30630.000000
25442.000000 30608.000000
25433.000000 30584.000000
25418.000000 30554.000000
25409.000000 30523.000000
25396.000000 30490.000000
25388.000000 30461.000000
25378.000000 30437.000000
25376.000000 30428.000000
25376.000000 30429.000000
25382.000000 30441.000000
25389.000000 30458.000000
25395.000000 30477.000000
25404.000000 30501.000000
25413.000000 30526.000000
25417.000000 30544.000000
25430.000000 30571.000000
25435.000000 30593.000000
25443.000000 30613.000000
25453.000000 30631.000000
25462.000000 30654.000000
25469.000000 30677.000000
25480.000000 30706.000000
25487.000000 30728.000000
25498.000000 30754.000000
25506.000000 30772.000000
25512.000000 30794.000000
25518.000000 30815.000000
25526.000000 30836.000000
25532.000000 30850.000000
25537.000000 30859.000000
25539.000000 30870.000000
25543.000000 30874.000000
25543.000000 30876.000000
25542.000000 30875.000000
25543.000000 30874.000000
25545.000000 30879.000000
25545.000000 30878.000000
25545.000000 30877.000000
25545.000000 30884.000000
25546.000000 30882.000000
25547.000000 30883.000000
25545.000000 30886.000000
25542.000000 30882.000000
25544.000000 30882.000000
25551.000000 30885.000000
25553.000000 30890.000000
25558.000000 30901.000000
25563.000000 30914.000000
25566.000000 30921.000000
25570.000000 30933.000000
25572.000000 30941.000000
25574.000000 30954.000000
25579.000000 30966.000000
25584.000000 30978.000000
25582.000000 30975.000000
25573.000000 30943.000000
25533.000000 30838.000000
25463.000000 30649.000000
25376.000000 30427.000000
25300.000000 30224.000000
25238.000000 30078.000000
25198.000000 29980.000000
25171.000000 29916.000000
25160.000000 29884.000000
25155.000000 29862.000000
25151.000000 29856.000000
25150.000000 29859.000000
25155.000000 29871.000000
25162.000000 29892.000000
25174.000000 29919.000000
25189.000000 29951.000000
25201.000000 29981.000000
25212.000000 30015.000000
25225.000000 30044.000000
25239.000000 30077.000000
25248.000000 30101.000000
25255.000000 30117.000000
25261.000000 30132.000000
25266.000000 30145.000000
25267.000000 30162.000000
25278.000000 30187.000000
25287.000000 30209.000000
25295.000000 30235.000000
25305.000000 30260.000000
25316.000000 30272.000000
25317.000000 30276.000000
25314.000000 30269.000000
25307.000000 30250.000000
25301.000000 30228.000000
25289.000000 30203.000000
25280.000000 30185.000000
25273.000000 30165.000000
25266.000000 30149.000000
25260.000000 30135.000000
25256.000000 30127.000000
25255.000000 30123.000000
25255.000000 30128.000000
25257.000000 30127.000000
25263.000000 30138.000000
25265.000000 30149.000000
25271.000000 30165.000000
25278.000000 30180.000000
25288.000000 30206.000000
25296.000000 30225.000000
25304.000000 30245.000000
25309.000000 30258.000000
25314.000000 30273.000000
25318.000000 30285.000000
25322.000000 30295.000000
25324.000000 30296.000000
25325.000000 30298.000000
25324.000000 30295.000000
25321.000000 30294.000000
25316.000000 30279.000000
25313.000000 30263.000000
25302.000000 30236.000000
25295.000000 30202.000000
25278.000000 30156.000000
25262.000000 30112.000000
25246.000000 30067.000000
25234.000000 30030.000000
25219.000000 29995.000000
25214.000000 29969.000000
25204.000000 29944.000000
25198.000000 29916.000000
25191.000000 29882.000000
25179.000000 29843.000000
25161.000000 29783.000000
25130.000000 29684.000000
25072.000000 29522.000000
24985.000000 29257.000000
24832.000000 28812.000000
24634.000000 28231.000000
24342.000000 27462.000000
24001.000000 26672.000000
20616.000000 21634.000000
23145.000000 21479.000000
19822.000000 17528.000000
14412.000000 12938.000000
10265.000000 9435.000000
7305.000000 6861.000000
5146.000000 4911.000000
3658.000000 3559.000000
2762.000000 2730.000000
2207.000000 2203.000000
1834.000000 1850.000000
1566.000000 1594.000000
1363.000000 1404.000000
1191.000000 1244.000000
1032.000000 1088.000000
880.000000 936.000000
752.000000 806.000000
651.000000 698.000000
576.000000 619.000000
521.000000 558.000000
477.000000 512.000000
441.000000 475.000000
413.000000 445.000000
383.000000 413.000000
353.000000 386.000000
330.000000 360.000000
314.000000 345.000000
303.000000 333.000000
290.000000 325.000000
283.000000 316.000000
278.000000 310.000000
275.000000 312.000000
273.000000 317.000000
271.000000 334.000000
272.000000 364.000000
273.000000 398.000000
275.000000 425.000000
271.000000 434.000000
265.000000 410.000000
253.000000 375.000000
236.000000 329.000000
217.000000 284.000000
200.000000 241.000000
185.000000 210.000000
176.000000 189.000000
171.000000 168.000000
165.000000 153.000000
159.000000 140.000000
160.000000 136.000000
156.000000 127.000000
155.000000 122.000000
154.000000 120.000000
152.000000 115.000000
149.000000 114.000000
151.000000 113.000000
151.000000 111.000000
147.000000 110.000000
148.000000 112.000000
146.000000 112.000000
144.000000 107.000000
144.000000 111.000000
144.000000 111.000000
143.000000 110.000000
143.000000 112.000000
143.000000 115.000000
144.000000 113.000000
141.000000 116.000000
142.000000 112.000000
140.000000 113.000000
139.000000 113.000000
141.000000 114.000000
143.000000 113.000000
139.000000 114.000000
145.000000 116.000000
144.000000 111.000000
147.000000 113.000000
145.000000 112.000000
147.000000 110.000000
147.000000 107.000000
147.000000 109.000000
149.000000 109.000000
150.000000 106.000000
150.000000 108.000000
149.000000 108.000000
149.000000 107.000000
151.000000 107.000000
150.000000 107.000000
146.000000 106.000000
148.000000 107.000000
147.000000 107.000000
146.000000 107.000000
146.000000 105.000000
145.000000 105.000000
144.000000 111.000000
145.000000 111.000000
144.000000 113.000000
144.000000 115.000000
143.000000 117.000000
143.000000 115.000000
143.000000 116.000000
140.000000 117.000000
140.000000 114.000000
138.000000 114.000000
142.000000 114.000000
144.000000 114.000000
141.000000 115.000000
139.000000 111.000000
142.000000 111.000000
141.000000 113.000000
142.000000 111.000000
145.000000 109.000000
147.000000 109.000000
149.000000 112.000000
151.000000 109.000000
152.000000 110.000000
152.000000 110.000000
151.000000 106.000000
149.000000 106.000000
150.000000 108.000000
148.000000 108.000000
150.000000 106.000000
148.000000 108.000000
146.000000 104.000000
147.000000 106.000000
144.000000 106.000000
147.000000 106.000000
144.000000 108.000000
145.000000 108.000000
143.000000 110.000000
143.000000 109.000000
142.000000 111.000000
142.000000 111.000000
143.000000 110.000000
