106617.000000 137055.000000
106623.000000 137065.000000
106599.000000 137001.000000
106543.000000 136809.000000
106448.000000 136497.000000
106330.000000 136117.000000
106217.000000 135768.000000
106139.000000 135544.000000
106083.000000 135385.000000
106052.000000 135287.000000
106021.000000 135215.000000
106014.000000 135190.000000
106011.000000 135179.000000
106023.000000 135203.000000
106035.000000 135242.000000
106052.000000 135306.000000
106068.000000 135374.000000
106095.000000 135462.000000
106110.000000 135539.000000
106133.000000 135631.000000
106152.000000 135712.000000
106177.000000 135805.000000
106201.000000 135881.000000
106232.000000 135977.000000
106263.000000 136058.000000
106297.000000 136158.000000
106325.000000 136256.000000
106355.000000 136362.000000
106380.000000 136442.000000
106401.000000 136505.000000
106403.000000 136526.000000
106407.000000 136527.000000
106385.000000 136478.000000
106375.000000 136425.000000
106344.000000 136357.000000
106325.000000 136289.000000
106290.000000 136197.000000
106267.000000 136115.000000
106232.000000 136038.000000
106222.000000 135993.000000
106207.000000 135948.000000
106200.000000 135930.000000
106200.000000 135913.000000
106201.000000 135916.000000
106199.000000 135929.000000
106218.000000 135968.000000
106222.000000 136005.000000
106240.000000 136068.000000
106264.000000 136144.000000
106304.000000 136257.000000
106338.000000 136369.000000
106373.000000 136480.000000
106403.000000 136575.000000
106431.000000 136678.000000
106452.000000 136758.000000
106481.000000 136844.000000
106496.000000 136909.000000
106512.000000 136978.000000
106519.000000 137011.000000
106532.000000 137049.000000
106537.000000 137070.000000
106549.000000 137094.000000
106554.000000 137100.000000
106553.000000 137099.000000
106549.000000 137086.000000
106544.000000 137062.000000
106532.000000 137023.000000
106525.000000 137001.000000
106522.000000 136972.000000
106525.000000 136982.000000
106528.000000 137000.000000
106540.000000 137038.000000
106551.000000 137086.000000
106565.000000 137131.000000
106568.000000 137168.000000
106581.000000 137192.000000
106572.000000 137178.000000
106571.000000 137168.000000
106569.000000 137145.000000
106575.000000 137142.000000
106578.000000 137143.000000
106583.000000 137148.000000
106578.000000 137134.000000
106576.000000 137148.000000
106572.000000 137154.000000
106578.000000 137176.000000
106452.000000 136758.000000
106597.000000 137238.000000
106610.000000 137288.000000
106627.000000 137346.000000
106644.000000 137406.000000
106658.000000 137473.000000
106664.000000 137528.000000
106671.000000 137569.000000
106666.000000 137590.000000
106667.000000 137619.000000
106666.000000 137635.000000
106664.000000 137645.000000
106662.000000 137643.000000
106645.000000 137580.000000
106578.000000 137352.000000
106453.000000 136952.000000
106325.000000 136522.000000
106192.000000 136082.000000
106084.000000 135743.000000
106020.000000 135542.000000
105975.000000 135407.000000
105938.000000 135302.000000
105919.000000 135241.000000
105900.000000 135194.000000
105887.000000 135177.000000
105884.000000 135168.000000
105888.000000 135191.000000
105897.000000 135224.000000
105925.000000 135290.000000
105946.000000 135368.000000
105976.000000 135444.000000
105999.000000 135524.000000
106018.000000 135592.000000
106035.000000 135640.000000
106057.000000 135695.000000
106070.000000 135743.000000
106094.000000 135795.000000
106110.000000 135841.000000
106127.000000 135892.000000
106140.000000 135938.000000
106157.000000 135981.000000
106158.000000 135986.000000
106150.000000 135982.000000
106139.000000 135948.000000
106126.000000 135910.000000
106104.000000 135850.000000
106077.000000 135782.000000
106052.000000 135703.000000
106031.000000 135649.000000
106007.000000 135597.000000
105997.000000 135561.000000
105979.000000 135530.000000
105974.000000 135517.000000
105962.000000 135496.000000
105968.000000 135509.000000
105972.000000 135517.000000
105989.000000 135559.000000
106001.000000 135591.000000
106021.000000 135639.000000
106030.000000 135688.000000
106056.000000 135759.000000
106073.000000 135824.000000
106094.000000 135897.000000
106112.000000 135958.000000
106135.000000 136014.000000
106144.000000 136054.000000
106160.000000 136106.000000
106168.000000 136136.000000
106180.000000 136183.000000
106188.000000 136221.000000
106205.000000 136272.000000
106215.000000 136312.000000
106226.000000 136349.000000
106230.000000 136373.000000
106238.000000 136390.000000
106237.000000 136391.000000
106245.000000 136404.000000
106241.000000 136413.000000
106255.000000 136430.000000
106253.000000 136439.000000
106258.000000 136451.000000
106253.000000 136443.000000
106252.000000 136454.000000
106254.000000 136461.000000
106262.000000 136486.000000
106268.000000 136505.000000
106282.000000 136546.000000
106292.000000 136580.000000
106309.000000 136634.000000
106316.000000 136673.000000
106337.000000 136722.000000
106336.000000 136734.000000
106345.000000 136749.000000
106346.000000 136742.000000
106349.000000 136743.000000
106343.000000 136733.000000
106342.000000 136733.000000
106337.000000 136730.000000
106342.000000 136737.000000
106348.000000 136751.000000
106358.000000 136784.000000
106362.000000 136811.000000
106378.000000 136848.000000
106389.000000 136887.000000
106406.000000 136934.000000
106415.000000 136978.000000
106438.000000 137039.000000
106448.000000 137080.000000
106465.000000 137126.000000
106470.000000 137147.000000
106466.000000 137122.000000
106409.000000 136956.000000
106309.000000 136636.000000
106169.000000 136192.000000
106033.000000 135769.000000
105932.000000 135496.000000
105873.000000 135301.000000
105821.000000 135163.000000
105781.000000 135051.000000
105747.000000 134964.000000
105725.000000 134907.000000
105711.000000 134873.000000
105714.000000 134871.000000
105715.000000 134883.000000
105723.000000 134912.000000
105726.000000 134949.000000
105750.000000 134999.000000
105760.000000 135044.000000
105774.000000 135099.000000
105788.000000 135156.000000
105813.000000 135219.000000
105835.000000 135271.000000
105844.000000 135314.000000
105861.000000 135364.000000
105868.000000 135390.000000
105878.000000 135422.000000
105887.000000 135448.000000
105889.000000 135480.000000
105893.000000 135483.000000
105887.000000 135468.000000
105868.000000 135428.000000
105854.000000 135372.000000
105825.000000 135310.000000
105812.000000 135255.000000
105792.000000 135197.000000
105775.000000 135151.000000
105755.000000 135101.000000
105740.000000 135062.000000
105727.000000 135030.000000
105718.000000 135012.000000
105710.000000 134989.000000
105703.000000 134983.000000
105694.000000 134976.000000
105696.000000 134982.000000
105700.000000 134995.000000
105709.000000 135020.000000
105720.000000 135047.000000
105736.000000 135082.000000
105746.000000 135110.000000
105754.000000 135147.000000
105760.000000 135178.000000
105768.000000 135208.000000
105781.000000 135236.000000
105791.000000 135280.000000
105798.000000 135305.000000
105810.000000 135344.000000
105816.000000 135367.000000
105822.000000 135397.000000
105821.000000 135402.000000
105828.000000 135413.000000
105828.000000 135413.000000
105834.000000 135431.000000
105833.000000 135437.000000
105840.000000 135454.000000
105836.000000 135460.000000
105839.000000 135470.000000
105831.000000 135468.000000
105832.000000 135471.000000
105821.000000 135469.000000
105818.000000 135471.000000
105812.000000 135466.000000
105817.000000 135489.000000
105825.000000 135509.000000
105842.000000 135547.000000
105843.000000 135562.000000
105853.000000 135591.000000
105853.000000 135600.000000
105865.000000 135621.000000
105865.000000 135640.000000
105875.000000 135663.000000
105877.000000 135671.000000
105892.000000 135692.000000
105892.000000 135699.000000
105895.000000 135707.000000
105892.000000 135711.000000
105899.000000 135735.000000
105907.000000 135764.000000
105919.000000 135790.000000
105926.000000 135808.000000
105939.000000 135829.000000
105939.000000 135850.000000
105957.000000 135892.000000
105964.000000 135926.000000
105973.000000 135965.000000
105971.000000 135967.000000
105962.000000 135931.000000
105924.000000 135816.000000
105850.000000 135586.000000
105759.000000 135323.000000
105691.000000 135116.000000
105627.000000 134934.000000
105574.000000 134779.000000
105519.000000 134625.000000
105480.000000 134508.000000
105440.000000 134400.000000
105415.000000 134327.000000
105397.000000 134270.000000
105388.000000 134247.000000
105375.000000 134233.000000
105379.000000 134240.000000
105374.000000 134254.000000
105382.000000 134290.000000
105385.000000 134320.000000
105407.000000 134374.000000
105422.000000 134418.000000
105436.000000 134472.000000
105450.000000 134509.000000
105460.000000 134545.000000
105466.000000 134567.000000
105477.000000 134607.000000
105508.000000 134669.000000
105537.000000 134737.000000
105564.000000 134803.000000
105584.000000 134853.000000
105594.000000 134873.000000
105588.000000 134861.000000
105573.000000 134828.000000
105560.000000 134789.000000
105540.000000 134744.000000
105520.000000 134697.000000
105494.000000 134650.000000
105481.000000 134608.000000
105462.000000 134564.000000
105448.000000 134532.000000
105434.000000 134500.000000
105424.000000 134477.000000
105420.000000 134475.000000
105426.000000 134486.000000
105428.000000 134503.000000
105435.000000 134531.000000
105441.000000 134570.000000
105450.000000 134597.000000
105460.000000 134633.000000
105470.000000 134663.000000
105485.000000 134707.000000
105498.000000 134740.000000
105515.000000 134784.000000
105525.000000 134821.000000
105539.000000 134869.000000
105546.000000 134905.000000
105556.000000 134943.000000
105561.000000 134969.000000
105574.000000 135001.000000
105578.000000 135015.000000
105583.000000 135043.000000
105588.000000 135059.000000
105599.000000 135083.000000
105602.000000 135100.000000
105605.000000 135118.000000
105611.000000 135130.000000
105618.000000 135153.000000
105627.000000 135170.000000
105634.000000 135195.000000
105634.000000 135210.000000
105641.000000 135224.000000
105638.000000 135227.000000
105641.000000 135243.000000
105643.000000 135251.000000
105649.000000 135274.000000
105649.000000 135286.000000
105658.000000 135307.000000
105656.000000 135323.000000
105665.000000 135348.000000
105671.000000 135357.000000
105677.000000 135377.000000
105678.000000 135396.000000
105687.000000 135419.000000
105688.000000 135428.000000
105694.000000 135452.000000
105709.000000 135494.000000
105731.000000 135542.000000
105741.000000 135582.000000
105760.000000 135627.000000
105765.000000 135654.000000
105772.000000 135681.000000
105771.000000 135688.000000
105782.000000 135721.000000
105785.000000 135740.000000
105797.000000 135773.000000
105799.000000 135795.000000
105812.000000 135834.000000
105818.000000 135866.000000
105829.000000 135908.000000
105830.000000 135934.000000
105841.000000 135963.000000
105837.000000 135928.000000
105804.000000 135781.000000
105700.000000 135453.000000
105595.000000 135131.000000
105509.000000 134882.000000
105449.000000 134696.000000
105387.000000 134534.000000
105341.000000 134387.000000
105289.000000 134251.000000
105249.000000 134149.000000
105224.000000 134065.000000
105209.000000 134017.000000
105189.000000 133988.000000
105195.000000 133993.000000
105199.000000 134004.000000
105207.000000 134037.000000
105214.000000 134072.000000
105235.000000 134134.000000
105237.000000 134168.000000
105260.000000 134226.000000
105277.000000 134275.000000
105297.000000 134333.000000
105309.000000 134380.000000
105333.000000 134437.000000
105339.000000 134477.000000
105363.000000 134535.000000
105376.000000 134592.000000
105404.000000 134658.000000
105417.000000 134708.000000
105430.000000 134733.000000
105422.000000 134728.000000
105421.000000 134706.000000
105403.000000 134666.000000
105389.000000 134630.000000
105371.000000 134584.000000
105356.000000 134546.000000
105342.000000 134503.000000
105333.000000 134480.000000
105321.000000 134444.000000
105313.000000 134427.000000
105305.000000 134415.000000
105302.000000 134412.000000
105297.000000 134420.000000
105303.000000 134438.000000
105310.000000 134459.000000
105321.000000 134498.000000
105328.000000 134532.000000
105342.000000 134562.000000
105347.000000 134583.000000
105355.000000 134604.000000
105358.000000 134621.000000
105360.000000 134648.000000
105370.000000 134678.000000
105386.000000 134720.000000
105408.000000 134772.000000
105425.000000 134824.000000
105440.000000 134871.000000
105446.000000 134900.000000
105454.000000 134929.000000
105457.000000 134941.000000
105454.000000 134958.000000
105453.000000 134956.000000
105458.000000 134970.000000
105461.000000 134987.000000
105471.000000 134999.000000
105476.000000 135005.000000
105476.000000 135014.000000
105469.000000 135017.000000
105482.000000 135039.000000
105481.000000 135048.000000
105490.000000 135070.000000
105500.000000 135106.000000
105521.000000 135143.000000
105537.000000 135176.000000
105544.000000 135206.000000
105547.000000 135208.000000
105546.000000 135221.000000
105537.000000 135214.000000
105542.000000 135231.000000
105549.000000 135256.000000
105560.000000 135287.000000
105559.000000 135309.000000
105574.000000 135343.000000
105588.000000 135383.000000
105607.000000 135434.000000
105612.000000 135461.000000
105623.000000 135495.000000
105630.000000 135507.000000
105640.000000 135535.000000
105643.000000 135545.000000
105645.000000 135549.000000
105637.000000 135545.000000
105639.000000 135555.000000
105639.000000 135559.000000
105651.000000 135587.000000
105657.000000 135622.000000
105678.000000 135679.000000
105688.000000 135725.000000
105705.000000 135780.000000
105720.000000 135830.000000
105735.000000 135879.000000
105742.000000 135908.000000
105751.000000 135949.000000
105747.000000 135936.000000
105726.000000 135849.000000
105642.000000 135594.000000
105525.000000 135225.000000
105420.000000 134909.000000
105346.000000 134682.000000
105283.000000 134494.000000
105235.000000 134343.000000
105190.000000 134203.000000
105151.000000 134091.000000
105107.000000 133992.000000
105088.000000 133924.000000
105059.000000 133879.000000
105050.000000 133863.000000
105048.000000 133865.000000
105055.000000 133892.000000
105059.000000 133923.000000
105082.000000 133984.000000
105101.000000 134033.000000
105119.000000 134096.000000
105132.000000 134140.000000
105150.000000 134191.000000
105639.000000 135559.000000
105167.000000 134250.000000
105169.000000 134278.000000
105185.000000 134315.000000
105194.000000 134345.000000
105209.000000 134399.000000
105223.000000 134449.000000
105235.000000 134496.000000
105238.000000 134507.000000
105242.000000 134514.000000
105230.000000 134487.000000
105226.000000 134461.000000
105211.000000 134419.000000
105192.000000 134383.000000
105178.000000 134340.000000
105166.000000 134305.000000
105150.000000 134278.000000
105145.000000 134258.000000
105132.000000 134241.000000
105139.000000 134239.000000
105132.000000 134241.000000
105140.000000 134264.000000
105153.000000 134292.000000
105167.000000 134328.000000
105174.000000 134374.000000
105193.000000 134424.000000
105204.000000 134466.000000
105221.000000 134512.000000
105228.000000 134545.000000
105241.000000 134586.000000
105247.000000 134622.000000
105263.000000 134673.000000
105281.000000 134721.000000
105295.000000 134769.000000
105311.000000 134828.000000
105326.000000 134870.000000
105338.000000 134918.000000
105361.000000 134962.000000
105376.000000 135004.000000
105384.000000 135042.000000
105394.000000 135073.000000
105398.000000 135104.000000
105411.000000 135146.000000
105423.000000 135196.000000
105439.000000 135246.000000
105458.000000 135300.000000
105473.000000 135351.000000
105489.000000 135390.000000
105497.000000 135420.000000
105504.000000 135445.000000
105510.000000 135473.000000
105521.000000 135497.000000
105529.000000 135525.000000
105530.000000 135550.000000
105542.000000 135582.000000
105556.000000 135616.000000
105565.000000 135651.000000
105576.000000 135686.000000
105598.000000 135743.000000
105617.000000 135798.000000
105632.000000 135849.000000
105636.000000 135866.000000
105640.000000 135886.000000
105640.000000 135892.000000
105650.000000 135908.000000
105651.000000 135923.000000
105659.000000 135954.000000
105665.000000 135970.000000
105678.000000 136019.000000
105687.000000 136059.000000
105704.000000 136123.000000
105719.000000 136188.000000
105750.000000 136274.000000
105777.000000 136371.000000
105808.000000 136480.000000
105840.000000 136569.000000
105865.000000 136650.000000
105866.000000 136662.000000
105841.000000 136561.000000
105735.000000 136230.000000
105592.000000 135754.000000
105427.000000 135239.000000
105299.000000 134875.000000
105221.000000 134642.000000
105170.000000 134489.000000
105124.000000 134360.000000
105091.000000 134271.000000
105065.000000 134192.000000
105052.000000 134157.000000
105038.000000 134137.000000
105044.000000 134145.000000
105049.000000 134165.000000
105063.000000 134215.000000
105080.000000 134269.000000
105102.000000 134344.000000
105131.000000 134421.000000
105157.000000 134512.000000
105181.000000 134587.000000
105212.000000 134672.000000
105229.000000 134730.000000
105248.000000 134785.000000
105257.000000 134828.000000
105276.000000 134886.000000
105291.000000 134945.000000
105315.000000 135009.000000
105326.000000 135045.000000
105332.000000 135058.000000
105319.000000 135037.000000
105317.000000 135011.000000
105296.000000 134947.000000
105276.000000 134885.000000
105254.000000 134813.000000
105235.000000 134743.000000
105208.000000 134678.000000
105193.000000 134633.000000
105175.000000 134588.000000
105166.000000 134561.000000
105155.000000 134533.000000
105149.000000 134530.000000
105148.000000 134527.000000
105153.000000 134540.000000
105157.000000 134555.000000
105170.000000 134588.000000
105177.000000 134615.000000
105193.000000 134655.000000
105199.000000 134689.000000
105216.000000 134732.000000
105232.000000 134774.000000
105251.000000 134817.000000
105261.000000 134855.000000
105281.000000 134905.000000
105293.000000 134958.000000
105319.000000 135028.000000
105335.000000 135089.000000
105356.000000 135152.000000
105370.000000 135205.000000
105389.000000 135257.000000
105402.000000 135283.000000
105411.000000 135299.000000
105408.000000 135285.000000
105408.000000 135278.000000
105400.000000 135266.000000
105399.000000 135267.000000
105400.000000 135264.000000
105403.000000 135276.000000
105399.000000 135285.000000
105400.000000 135299.000000
105404.000000 135313.000000
105421.000000 135333.000000
105423.000000 135354.000000
105433.000000 135379.000000
105438.000000 135390.000000
105447.000000 135409.000000
105447.000000 135423.000000
105452.000000 135433.000000
105457.000000 135448.000000
105464.000000 135458.000000
105462.000000 135471.000000
105469.000000 135481.000000
105471.000000 135503.000000
105479.000000 135536.000000
105489.000000 135574.000000
105504.000000 135612.000000
105514.000000 135648.000000
105525.000000 135691.000000
105544.000000 135751.000000
105571.000000 135815.000000
105588.000000 135892.000000
105607.000000 135969.000000
105628.000000 136017.000000
105607.000000 135964.000000
105542.000000 135752.000000
105429.000000 135369.000000
105290.000000 134967.000000
105195.000000 134687.000000
105121.000000 134472.000000
105063.000000 134297.000000
105012.000000 134156.000000
104967.000000 134032.000000
104932.000000 133940.000000
104907.000000 133869.000000
104893.000000 133841.000000
104885.000000 133826.000000
104890.000000 133838.000000
104893.000000 133864.000000
104910.000000 133914.000000
104926.000000 133958.000000
104942.000000 134019.000000
104959.000000 134077.000000
104994.000000 134163.000000
105028.000000 134251.000000
105063.000000 134334.000000
105089.000000 134407.000000
105108.000000 134483.000000
105128.000000 134543.000000
105148.000000 134607.000000
105156.000000 134652.000000
105161.000000 134690.000000
105161.000000 134694.000000
105165.000000 134688.000000
105145.000000 134646.000000
105125.000000 134597.000000
105106.000000 134532.000000
105087.000000 134481.000000
105068.000000 134433.000000
105054.000000 134394.000000
105036.000000 134349.000000
105021.000000 134313.000000
105006.000000 134277.000000
105002.000000 134263.000000
104990.000000 134244.000000
104992.000000 134246.000000
104985.000000 134236.000000
104988.000000 134249.000000
104985.000000 134258.000000
104996.000000 134284.000000
105002.000000 134316.000000
105025.000000 134362.000000
105036.000000 134404.000000
105056.000000 134460.000000
105071.000000 134505.000000
105091.000000 134567.000000
105103.000000 134617.000000
105120.000000 134666.000000
105125.000000 134704.000000
105134.000000 134740.000000
105141.000000 134771.000000
105147.000000 134804.000000
105150.000000 134821.000000
105162.000000 134853.000000
105168.000000 134876.000000
105183.000000 134909.000000
105189.000000 134933.000000
105204.000000 134967.000000
105211.000000 135000.000000
105232.000000 135042.000000
105246.000000 135072.000000
105252.000000 135094.000000
105249.000000 135095.000000
105251.000000 135107.000000
105248.000000 135105.000000
105246.000000 135110.000000
105241.000000 135108.000000
105244.000000 135114.000000
105257.000000 135141.000000
105273.000000 135190.000000
105292.000000 135233.000000
105308.000000 135283.000000
105320.000000 135316.000000
105333.000000 135362.000000
105340.000000 135387.000000
105344.000000 135406.000000
105340.000000 135408.000000
105351.000000 135428.000000
105353.000000 135442.000000
105362.000000 135463.000000
105363.000000 135470.000000
105364.000000 135479.000000
105367.000000 135502.000000
105375.000000 135531.000000
105384.000000 135566.000000
105402.000000 135613.000000
105414.000000 135663.000000
105436.000000 135714.000000
105453.000000 135764.000000
105472.000000 135813.000000
105490.000000 135868.000000
105507.000000 135910.000000
105517.000000 135945.000000
105522.000000 135955.000000
105497.000000 135888.000000
105437.000000 135660.000000
105318.000000 135266.000000
105191.000000 134867.000000
105104.000000 134599.000000
105032.000000 134381.000000
104974.000000 134209.000000
104917.000000 134057.000000
104868.000000 133925.000000
104828.000000 133825.000000
104794.000000 133743.000000
104770.000000 133694.000000
104759.000000 133672.000000
104757.000000 133672.000000
104763.000000 133701.000000
104775.000000 133741.000000
104791.000000 133795.000000
104808.000000 133856.000000
104832.000000 133924.000000
104853.000000 133985.000000
104870.000000 134050.000000
104885.000000 134094.000000
104904.000000 134146.000000
104914.000000 134185.000000
104933.000000 134235.000000
104946.000000 134287.000000
104966.000000 134338.000000
104975.000000 134376.000000
104987.000000 134403.000000
104979.000000 134403.000000
104981.000000 134392.000000
104965.000000 134354.000000
104952.000000 134329.000000
104933.000000 134278.000000
104927.000000 134245.000000
104912.000000 134203.000000
104903.000000 134172.000000
104889.000000 134135.000000
104877.000000 134118.000000
104878.000000 134099.000000
104877.000000 134100.000000
104874.000000 134094.000000
104880.000000 134109.000000
104879.000000 134118.000000
104882.000000 134140.000000
104878.000000 134156.000000
104898.000000 134191.000000
104906.000000 134224.000000
104919.000000 134268.000000
104938.000000 134320.000000
104962.000000 134379.000000
104975.000000 134418.000000
104982.000000 134455.000000
104985.000000 134476.000000
104993.000000 134508.000000
105004.000000 134535.000000
105018.000000 134578.000000
105024.000000 134604.000000
105037.000000 134640.000000
105044.000000 134666.000000
105056.000000 134688.000000
105055.000000 134702.000000
105058.000000 134710.000000
105049.000000 134696.000000
105050.000000 134678.000000
105031.000000 134639.000000
105023.000000 134606.000000
105012.000000 134583.000000
105011.000000 134583.000000
105011.000000 134574.000000
105017.000000 134585.000000
105020.000000 134595.000000
105026.000000 134610.000000
105023.000000 134621.000000
105033.000000 134641.000000
105032.000000 134644.000000
105039.000000 134658.000000
105042.000000 134668.000000
105052.000000 134684.000000
105051.000000 134691.000000
105053.000000 134704.000000
105051.000000 134706.000000
105058.000000 134723.000000
105061.000000 134733.000000
105065.000000 134748.000000
105070.000000 134768.000000
105085.000000 134799.000000
105097.000000 134833.000000
105115.000000 134870.000000
105124.000000 134903.000000
105141.000000 134949.000000
105147.000000 134978.000000
105158.000000 135009.000000
105154.000000 135028.000000
105176.000000 135071.000000
105197.000000 135123.000000
105224.000000 135201.000000
105243.000000 135280.000000
105265.000000 135347.000000
105277.000000 135399.000000
105290.000000 135415.000000
105263.000000 135335.000000
105205.000000 135131.000000
105095.000000 134803.000000
104994.000000 134505.000000
104903.000000 134265.000000
104839.000000 134063.000000
104775.000000 133878.000000
104720.000000 133718.000000
104671.000000 133576.000000
104626.000000 133456.000000
104596.000000 133369.000000
104573.000000 133313.000000
104559.000000 133291.000000
104560.000000 133292.000000
104569.000000 133318.000000
104574.000000 133360.000000
104588.000000 133407.000000
104603.000000 133460.000000
104621.000000 133519.000000
104639.000000 133566.000000
104655.000000 133622.000000
104674.000000 133668.000000
104688.000000 133719.000000
104699.000000 133748.000000
104712.000000 133793.000000
104719.000000 133833.000000
104731.000000 133882.000000
104753.000000 133930.000000
104770.000000 133981.000000
104774.000000 133990.000000
104774.000000 133990.000000
104765.000000 133962.000000
104750.000000 133940.000000
104731.000000 133886.000000
104713.000000 133842.000000
104698.000000 133799.000000
104684.000000 133771.000000
104669.000000 133736.000000
104664.000000 133714.000000
104651.000000 133678.000000
104645.000000 133664.000000
104634.000000 133655.000000
104633.000000 133665.000000
104635.000000 133673.000000
104644.000000 133706.000000
104656.000000 133736.000000
104678.000000 133786.000000
104695.000000 133839.000000
104712.000000 133901.000000
104730.000000 133949.000000
104744.000000 134007.000000
104759.000000 134050.000000
104774.000000 134103.000000
104782.000000 134135.000000
104791.000000 134173.000000
104794.000000 134199.000000
104806.000000 134230.000000
104815.000000 134259.000000
104831.000000 134291.000000
104843.000000 134325.000000
104855.000000 134365.000000
104861.000000 134395.000000
104877.000000 134425.000000
104874.000000 134433.000000
104876.000000 134446.000000
104873.000000 134443.000000
104878.000000 134454.000000
104876.000000 134453.000000
104882.000000 134464.000000
104882.000000 134469.000000
104891.000000 134491.000000
104889.000000 134496.000000
104893.000000 134514.000000
104896.000000 134522.000000
104904.000000 134532.000000
104899.000000 134537.000000
104904.000000 134553.000000
104903.000000 134559.000000
104914.000000 134583.000000
104919.000000 134596.000000
104928.000000 134624.000000
104932.000000 134640.000000
104946.000000 134667.000000
104950.000000 134688.000000
104969.000000 134722.000000
104972.000000 134750.000000
104986.000000 134777.000000
104989.000000 134803.000000
104999.000000 134834.000000
104995.000000 134846.000000
105003.000000 134860.000000
105002.000000 134867.000000
105004.000000 134886.000000
105002.000000 134898.000000
105001.000000 134912.000000
104999.000000 134899.000000
104983.000000 134834.000000
104928.000000 134652.000000
104851.000000 134404.000000
104775.000000 134176.000000
104712.000000 133976.000000
104644.000000 133782.000000
104590.000000 133606.000000
104521.000000 133441.000000
104476.000000 133310.000000
104432.000000 133200.000000
104402.000000 133128.000000
104378.000000 133081.000000
104374.000000 133068.000000
104374.000000 133078.000000
104386.000000 133111.000000
104405.000000 133150.000000
104414.000000 133202.000000
104427.000000 133250.000000
104448.000000 133311.000000
104468.000000 133375.000000
104489.000000 133434.000000
104504.000000 133484.000000
104523.000000 133539.000000
104539.000000 133595.000000
104568.000000 133660.000000
104590.000000 133730.000000
104611.000000 133789.000000
104626.000000 133827.000000
104629.000000 133843.000000
104626.000000 133844.000000
104620.000000 133827.000000
104614.000000 133797.000000
104595.000000 133760.000000
104579.000000 133712.000000
104564.000000 133667.000000
104548.000000 133621.000000
104534.000000 133576.000000
104521.000000 133539.000000
104506.000000 133505.000000
104500.000000 133489.000000
104500.000000 133483.000000
104505.000000 133493.000000
104506.000000 133507.000000
104509.000000 133527.000000
104511.000000 133551.000000
104521.000000 133590.000000
104538.000000 133626.000000
104551.000000 133657.000000
104564.000000 133703.000000
104571.000000 133734.000000
104574.000000 133759.000000
104588.000000 133795.000000
104593.000000 133815.000000
104598.000000 133850.000000
104604.000000 133872.000000
104620.000000 133919.000000
104637.000000 133959.000000
104658.000000 134018.000000
104671.000000 134051.000000
104686.000000 134085.000000
104685.000000 134095.000000
104694.000000 134105.000000
104691.000000 134111.000000
104688.000000 134120.000000
104688.000000 134122.000000
104693.000000 134135.000000
104690.000000 134140.000000
104696.000000 134153.000000
104695.000000 134154.000000
104705.000000 134176.000000
104707.000000 134185.000000
104710.000000 134199.000000
104716.000000 134207.000000
104716.000000 134216.000000
104721.000000 134222.000000
104725.000000 134239.000000
104729.000000 134248.000000
104737.000000 134261.000000
104739.000000 134277.000000
104754.000000 134307.000000
104758.000000 134321.000000
104771.000000 134359.000000
104770.000000 134379.000000
104774.000000 134398.000000
104774.000000 134404.000000
104772.000000 134413.000000
104771.000000 134419.000000
104780.000000 134430.000000
104777.000000 134445.000000
104788.000000 134482.000000
104796.000000 134507.000000
104811.000000 134545.000000
104807.000000 134537.000000
104788.000000 134474.000000
104740.000000 134309.000000
104678.000000 134103.000000
104603.000000 133892.000000
104544.000000 133697.000000
104474.000000 133508.000000
104420.000000 133340.000000
104361.000000 133179.000000
104316.000000 133055.000000
104272.000000 132948.000000
104247.000000 132889.000000
104228.000000 132847.000000
104225.000000 132837.000000
104223.000000 132835.000000
104235.000000 132868.000000
104239.000000 132898.000000
104257.000000 132952.000000
104272.000000 133012.000000
104293.000000 133070.000000
104307.000000 133120.000000
104322.000000 133172.000000
104337.000000 133215.000000
104355.000000 133268.000000
104369.000000 133309.000000
104389.000000 133367.000000
104395.000000 133406.000000
104414.000000 133451.000000
104417.000000 133475.000000
104420.000000 133486.000000
104409.000000 133473.000000
104410.000000 133457.000000
104399.000000 133429.000000
104394.000000 133407.000000
104376.000000 133371.000000
104371.000000 133348.000000
104357.000000 133314.000000
104345.000000 133284.000000
104330.000000 133247.000000
104323.000000 133232.000000
104319.000000 133216.000000
104323.000000 133232.000000
104332.000000 133245.000000
104336.000000 133266.000000
104339.000000 133286.000000
104346.000000 133311.000000
104351.000000 133333.000000
104357.000000 133365.000000
104369.000000 133394.000000
104386.000000 133432.000000
104394.000000 133474.000000
104416.000000 133513.000000
104425.000000 133544.000000
104440.000000 133574.000000
104449.000000 133610.000000
104457.000000 133641.000000
104466.000000 133670.000000
104477.000000 133707.000000
104489.000000 133737.000000
104497.000000 133763.000000
104504.000000 133786.000000
104507.000000 133799.000000
104511.000000 133819.000000
104517.000000 133837.000000
104524.000000 133855.000000
104525.000000 133864.000000
104525.000000 133878.000000
104525.000000 133879.000000
104532.000000 133892.000000
104541.000000 133915.000000
104554.000000 133946.000000
104562.000000 133972.000000
104563.000000 133997.000000
104570.000000 134016.000000
104581.000000 134045.000000
104585.000000 134054.000000
104592.000000 134069.000000
104595.000000 134076.000000
104598.000000 134086.000000
104606.000000 134107.000000
104614.000000 134133.000000
104620.000000 134151.000000
104626.000000 134171.000000
104633.000000 134189.000000
104639.000000 134212.000000
104651.000000 134231.000000
104662.000000 134268.000000
104671.000000 134298.000000
104688.000000 134345.000000
104701.000000 134388.000000
104727.000000 134447.000000
104743.000000 134498.000000
104764.000000 134555.000000
104770.000000 134603.000000
104788.000000 134652.000000
104794.000000 134677.000000
104794.000000 134671.000000
104776.000000 134602.000000
104732.000000 134434.000000
104649.000000 134196.000000
104579.000000 133977.000000
104504.000000 133766.000000
104442.000000 133574.000000
104371.000000 133387.000000
104317.000000 133219.000000
104260.000000 133068.000000
104215.000000 132953.000000
104178.000000 132868.000000
104174.000000 132838.000000
104166.000000 132826.000000
104177.000000 132853.000000
104185.000000 132875.000000
104200.000000 132926.000000
104210.000000 132966.000000
104227.000000 133022.000000
104236.000000 133061.000000
104256.000000 133117.000000
104266.000000 133166.000000
104288.000000 133223.000000
104299.000000 133262.000000
104321.000000 133314.000000
104331.000000 133350.000000
104347.000000 133403.000000
104360.000000 133441.000000
104374.000000 133490.000000
104376.000000 133504.000000
104377.000000 133515.000000
104368.000000 133508.000000
104367.000000 133499.000000
104353.000000 133479.000000
104345.000000 133456.000000
104336.000000 133426.000000
104328.000000 133390.000000
104318.000000 133366.000000
104316.000000 133357.000000
104309.000000 133337.000000
104311.000000 133332.000000
104303.000000 133328.000000
104308.000000 133333.000000
104301.000000 133337.000000
104306.000000 133346.000000
104302.000000 133353.000000
104313.000000 133378.000000
104319.000000 133404.000000
104334.000000 133440.000000
104338.000000 133467.000000
104349.000000 133505.000000
104357.000000 133535.000000
104379.000000 133572.000000
104388.000000 133614.000000
104409.000000 133662.000000
104423.000000 133712.000000
104441.000000 133763.000000
104460.000000 133817.000000
104482.000000 133879.000000
104497.000000 133918.000000
104507.000000 133947.000000
104509.000000 133963.000000
104515.000000 133979.000000
104514.000000 133994.000000
104518.000000 134003.000000
104520.000000 134015.000000
104527.000000 134039.000000
104532.000000 134058.000000
104543.000000 134083.000000
104548.000000 134106.000000
104561.000000 134124.000000
104566.000000 134147.000000
104579.000000 134167.000000
104587.000000 134191.000000
104594.000000 134217.000000
104597.000000 134230.000000
104602.000000 134236.000000
104603.000000 134243.000000
104605.000000 134247.000000
104601.000000 134246.000000
104604.000000 134249.000000
104606.000000 134259.000000
104616.000000 134272.000000
104627.000000 134296.000000
104633.000000 134318.000000
104641.000000 134356.000000
104659.000000 134398.000000
104676.000000 134439.000000
104686.000000 134476.000000
104704.000000 134525.000000
104725.000000 134575.000000
104739.000000 134620.000000
104746.000000 134649.000000
104751.000000 134664.000000
104740.000000 134626.000000
104711.000000 134518.000000
104650.000000 134310.000000
104580.000000 134103.000000
104516.000000 133907.000000
104457.000000 133719.000000
104389.000000 133531.000000
104333.000000 133362.000000
104282.000000 133215.000000
104248.000000 133110.000000
104214.000000 133019.000000
104197.000000 132977.000000
104182.000000 132943.000000
104179.000000 132949.000000
104181.000000 132966.000000
104197.000000 133011.000000
104205.000000 133049.000000
104223.000000 133112.000000
104240.000000 133172.000000
104266.000000 133240.000000
104287.000000 133294.000000
104311.000000 133360.000000
104325.000000 133401.000000
104342.000000 133447.000000
104354.000000 133490.000000
104375.000000 133537.000000
104381.000000 133576.000000
104395.000000 133627.000000
104403.000000 133644.000000
104410.000000 133654.000000
104407.000000 133638.000000
104398.000000 133615.000000
104386.000000 133578.000000
104380.000000 133543.000000
104362.000000 133495.000000
104347.000000 133456.000000
104326.000000 133402.000000
104316.000000 133370.000000
104299.000000 133334.000000
104294.000000 133322.000000
104290.000000 133312.000000
104295.000000 133316.000000
104294.000000 133325.000000
104304.000000 133347.000000
104303.000000 133361.000000
104319.000000 133394.000000
104325.000000 133423.000000
104340.000000 133463.000000
104356.000000 133497.000000
104370.000000 133540.000000
104379.000000 133578.000000
104396.000000 133625.000000
104410.000000 133665.000000
104423.000000 133701.000000
104424.000000 133722.000000
104438.000000 133745.000000
104435.000000 133756.000000
104439.000000 133774.000000
104446.000000 133786.000000
104452.000000 133802.000000
104452.000000 133820.000000
104462.000000 133837.000000
104467.000000 133849.000000
104476.000000 133872.000000
104483.000000 133887.000000
104492.000000 133909.000000
104500.000000 133917.000000
104504.000000 133930.000000
104503.000000 133926.000000
104510.000000 133929.000000
104505.000000 133928.000000
104505.000000 133939.000000
104505.000000 133946.000000
104520.000000 133979.000000
104528.000000 134008.000000
104548.000000 134053.000000
104562.000000 134092.000000
104581.000000 134137.000000
104594.000000 134170.000000
104604.000000 134203.000000
104608.000000 134226.000000
104618.000000 134259.000000
104621.000000 134270.000000
104622.000000 134276.000000
104621.000000 134258.000000
104602.000000 134184.000000
104558.000000 134038.000000
104507.000000 133870.000000
104445.000000 133698.000000
104390.000000 133526.000000
104327.000000 133358.000000
104275.000000 133199.000000
104225.000000 133064.000000
104181.000000 132949.000000
104150.000000 132865.000000
104130.000000 132815.000000
104120.000000 132785.000000
104111.000000 132775.000000
104116.000000 132788.000000
104124.000000 132821.000000
104134.000000 132871.000000
104154.000000 132923.000000
104180.000000 132991.000000
104202.000000 133057.000000
104230.000000 133127.000000
104247.000000 133184.000000
104268.000000 133245.000000
104285.000000 133297.000000
104305.000000 133369.000000
104328.000000 133435.000000
104351.000000 133506.000000
104366.000000 133547.000000
104379.000000 133576.000000
104377.000000 133578.000000
104380.000000 133575.000000
104371.000000 133555.000000
104366.000000 133532.000000
104353.000000 133500.000000
104340.000000 133465.000000
104328.000000 133423.000000
104313.000000 133384.000000
104294.000000 133337.000000
104285.000000 133306.000000
104276.000000 133278.000000
104272.000000 133275.000000
104270.000000 133269.000000
104272.000000 133282.000000
104276.000000 133299.000000
104280.000000 133323.000000
104284.000000 133337.000000
104296.000000 133376.000000
104303.000000 133402.000000
104314.000000 133441.000000
104329.000000 133475.000000
104343.000000 133518.000000
104351.000000 133549.000000
104370.000000 133593.000000
104378.000000 133618.000000
104396.000000 133655.000000
104405.000000 133679.000000
104418.000000 133715.000000
104426.000000 133739.000000
104437.000000 133767.000000
104437.000000 133774.000000
104443.000000 133797.000000
104446.000000 133807.000000
104453.000000 133831.000000
104457.000000 133843.000000
104468.000000 133869.000000
104468.000000 133876.000000
104475.000000 133895.000000
104474.000000 133894.000000
104485.000000 133914.000000
104487.000000 133923.000000
104496.000000 133937.000000
104497.000000 133949.000000
104510.000000 133969.000000
104512.000000 133985.000000
104523.000000 134011.000000
104528.000000 134031.000000
104541.000000 134062.000000
104545.000000 134086.000000
104562.000000 134114.000000
104568.000000 134138.000000
104572.000000 134168.000000
104574.000000 134187.000000
104590.000000 134216.000000
104598.000000 134239.000000
104602.000000 134246.000000
104590.000000 134203.000000
104560.000000 134098.000000
104507.000000 133932.000000
104453.000000 133759.000000
104386.000000 133560.000000
104323.000000 133368.000000
104259.000000 133184.000000
104202.000000 133020.000000
104150.000000 132873.000000
104103.000000 132759.000000
104063.000000 132670.000000
104041.000000 132624.000000
104032.000000 132613.000000
104039.000000 132631.000000
104050.000000 132664.000000
104074.000000 132722.000000
104085.000000 132774.000000
104108.000000 132837.000000
104121.000000 132891.000000
104141.000000 132949.000000
104154.000000 133000.000000
104175.000000 133057.000000
104188.000000 133103.000000
104209.000000 133150.000000
104220.000000 133192.000000
104238.000000 133239.000000
104246.000000 133276.000000
104258.000000 133312.000000
104263.000000 133332.000000
104268.000000 133335.000000
104262.000000 133328.000000
104256.000000 133320.000000
104249.000000 133298.000000
104239.000000 133269.000000
104226.000000 133238.000000
104214.000000 133202.000000
104204.000000 133172.000000
104197.000000 133146.000000
104192.000000 133131.000000
104182.000000 133120.000000
104184.000000 133107.000000
104184.000000 133110.000000
104183.000000 133115.000000
104186.000000 133127.000000
104196.000000 133151.000000
104209.000000 133179.000000
104220.000000 133223.000000
104236.000000 133268.000000
104255.000000 133319.000000
104276.000000 133366.000000
104292.000000 133416.000000
104309.000000 133463.000000
104323.000000 133517.000000
104339.000000 133561.000000
104352.000000 133603.000000
104370.000000 133635.000000
104382.000000 133674.000000
104393.000000 133710.000000
104408.000000 133751.000000
104420.000000 133781.000000
104434.000000 133820.000000
104446.000000 133841.000000
104456.000000 133872.000000
104468.000000 133896.000000
104482.000000 133931.000000
104490.000000 133960.000000
104498.000000 133997.000000
104506.000000 134015.000000
104517.000000 134044.000000
104524.000000 134067.000000
104538.000000 134081.000000
104547.000000 134100.000000
104552.000000 134119.000000
104554.000000 134131.000000
104562.000000 134148.000000
104565.000000 134158.000000
104575.000000 134189.000000
104587.000000 134205.000000
104602.000000 134232.000000
104611.000000 134259.000000
104625.000000 134297.000000
104637.000000 134331.000000
104653.000000 134372.000000
104662.000000 134401.000000
104683.000000 134456.000000
104702.000000 134509.000000
104732.000000 134587.000000
104755.000000 134654.000000
104779.000000 134698.000000
104770.000000 134670.000000
104735.000000 134536.000000
104660.000000 134321.000000
104587.000000 134104.000000
104514.000000 133883.000000
104456.000000 133872.000000
104368.000000 133471.000000
104307.000000 133297.000000
104244.000000 133130.000000
104206.000000 133003.000000
104167.000000 132908.000000
104153.000000 132860.000000
104141.000000 132831.000000
104143.000000 132846.000000
104146.000000 132866.000000
104160.000000 132911.000000
104170.000000 132952.000000
104179.000000 133010.000000
104195.000000 133058.000000
104215.000000 133109.000000
104227.000000 133151.000000
104243.000000 133195.000000
104257.000000 133228.000000
104271.000000 133271.000000
104287.000000 133301.000000
104302.000000 133337.000000
104308.000000 133365.000000
104321.000000 133404.000000
104326.000000 133431.000000
104334.000000 133451.000000
104327.000000 133454.000000
104326.000000 133452.000000
104318.000000 133429.000000
104314.000000 133423.000000
104303.000000 133396.000000
104295.000000 133372.000000
104283.000000 133343.000000
104283.000000 133330.000000
104271.000000 133310.000000
104273.000000 133301.000000
104268.000000 133290.000000
104275.000000 133303.000000
104275.000000 133309.000000
104280.000000 133326.000000
104281.000000 133347.000000
104294.000000 133374.000000
104300.000000 133401.000000
104316.000000 133436.000000
104315.000000 133460.000000
104330.000000 133490.000000
104340.000000 133528.000000
104356.000000 133574.000000
104374.000000 133621.000000
104390.000000 133672.000000
104405.000000 133715.000000
104418.000000 133759.000000
104431.000000 133787.000000
104442.000000 133818.000000
104452.000000 133845.000000
104466.000000 133879.000000
104477.000000 133909.000000
104492.000000 133943.000000
104508.000000 133975.000000
104528.000000 134009.000000
104531.000000 134029.000000
104542.000000 134057.000000
104541.000000 134069.000000
104550.000000 134083.000000
104554.000000 134102.000000
104564.000000 134127.000000
104575.000000 134150.000000
104587.000000 134171.000000
104592.000000 134205.000000
104606.000000 134227.000000
104614.000000 134257.000000
104618.000000 134273.000000
104620.000000 134288.000000
104621.000000 134296.000000
104627.000000 134313.000000
104634.000000 134331.000000
104644.000000 134344.000000
104646.000000 134356.000000
104661.000000 134382.000000
104662.000000 134399.000000
104674.000000 134428.000000
104682.000000 134450.000000
104690.000000 134485.000000
104706.000000 134523.000000
104724.000000 134567.000000
104736.000000 134600.000000
104750.000000 134639.000000
104762.000000 134673.000000
104785.000000 134730.000000
104797.000000 134771.000000
104812.000000 134818.000000
104821.000000 134836.000000
104812.000000 134795.000000
104759.000000 134617.000000
104685.000000 134388.000000
104613.000000 134167.000000
104550.000000 133969.000000
104481.000000 133775.000000
104414.000000 133595.000000
104350.000000 133425.000000
104297.000000 133276.000000
104245.000000 133147.000000
104214.000000 133062.000000
104188.000000 133006.000000
104174.000000 132980.000000
104171.000000 132976.000000
104184.000000 133007.000000
104195.000000 133046.000000
104213.000000 133098.000000
104224.000000 133151.000000
104247.000000 133209.000000
104263.000000 133268.000000
104281.000000 133321.000000
104291.000000 133356.000000
104303.000000 133398.000000
104309.000000 133429.000000
104325.000000 133470.000000
104325.000000 133501.000000
104335.000000 133540.000000
104337.000000 133563.000000
104344.000000 133589.000000
104349.000000 133595.000000
104355.000000 133606.000000
104353.000000 133608.000000
104359.000000 133601.000000
104344.000000 133579.000000
104335.000000 133556.000000
104319.000000 133528.000000
104314.000000 133503.000000
104302.000000 133470.000000
104295.000000 133457.000000
104287.000000 133441.000000
104293.000000 133443.000000
104290.000000 133442.000000
104295.000000 133455.000000
104297.000000 133466.000000
104308.000000 133495.000000
104313.000000 133522.000000
104330.000000 133562.000000
104335.000000 133592.000000
104356.000000 133640.000000
104364.000000 133680.000000
104383.000000 133729.000000
104393.000000 133762.000000
104413.000000 133816.000000
104429.000000 133857.000000
104449.000000 133906.000000
104463.000000 133947.000000
104480.000000 133997.000000
104493.000000 134032.000000
104512.000000 134085.000000
104531.000000 134130.000000
104549.000000 134189.000000
104565.000000 134233.000000
104577.000000 134269.000000
104579.000000 134295.000000
104591.000000 134321.000000
104593.000000 134338.000000
104605.000000 134364.000000
104611.000000 134385.000000
104622.000000 134419.000000
104633.000000 134443.000000
104647.000000 134487.000000
104663.000000 134530.000000
104691.000000 134581.000000
104704.000000 134628.000000
104723.000000 134673.000000
104735.000000 134703.000000
104745.000000 134730.000000
104747.000000 134743.000000
104748.000000 134747.000000
104744.000000 134750.000000
104751.000000 134757.000000
104750.000000 134771.000000
104762.000000 134789.000000
104765.000000 134813.000000
104781.000000 134845.000000
104791.000000 134881.000000
104803.000000 134920.000000
104817.000000 134964.000000
104832.000000 135013.000000
104852.000000 135078.000000
104874.000000 135145.000000
104893.000000 135202.000000
104901.000000 135227.000000
104894.000000 135188.000000
104849.000000 135010.000000
104753.000000 134726.000000
104664.000000 134461.000000
104583.000000 134250.000000
104524.000000 134062.000000
104468.000000 133906.000000
104414.000000 133761.000000
104372.000000 133637.000000
104334.000000 133531.000000
104313.000000 133459.000000
104298.000000 133429.000000
104298.000000 133425.000000
104306.000000 133446.000000
104317.000000 133490.000000
104337.000000 133537.000000
104351.000000 133596.000000
104368.000000 133648.000000
104382.000000 133697.000000
104395.000000 133747.000000
104420.000000 133803.000000
104434.000000 133848.000000
104456.000000 133909.000000
104472.000000 133957.000000
104495.000000 134018.000000
104511.000000 134083.000000
104538.000000 134165.000000
104564.000000 134228.000000
104584.000000 134288.000000
104588.000000 134306.000000
104595.000000 134306.000000
104587.000000 134282.000000
104582.000000 134263.000000
104565.000000 134226.000000
104555.000000 134188.000000
104537.000000 134136.000000
104526.000000 134101.000000
104504.000000 134055.000000
104495.000000 134027.000000
104480.000000 133999.000000
104480.000000 133994.000000
104477.000000 133992.000000
104482.000000 134002.000000
104485.000000 134014.000000
104495.000000 134047.000000
104500.000000 134069.000000
104515.000000 134108.000000
104526.000000 134139.000000
104540.000000 134186.000000
104548.000000 134219.000000
104557.000000 134250.000000
104557.000000 134265.000000
104564.000000 134289.000000
104562.000000 134299.000000
104568.000000 134310.000000
104578.000000 134331.000000
104598.000000 134368.000000
104606.000000 134399.000000
104620.000000 134430.000000
104622.000000 134447.000000
104631.000000 134476.000000
104633.000000 134482.000000
104639.000000 134491.000000
104633.000000 134502.000000
104645.000000 134522.000000
104645.000000 134535.000000
104653.000000 134558.000000
104662.000000 134574.000000
104667.000000 134588.000000
104670.000000 134592.000000
104670.000000 134601.000000
104669.000000 134595.000000
104674.000000 134610.000000
104674.000000 134611.000000
104683.000000 134625.000000
104689.000000 134644.000000
104697.000000 134672.000000
104702.000000 134684.000000
104703.000000 134701.000000
104706.000000 134714.000000
104717.000000 134748.000000
104734.000000 134779.000000


107545.000000 134097.000000
107752.000000 134747.000000
107896.000000 135285.000000
108007.000000 135711.000000
108027.000000 136004.000000
108041.000000 136250.000000
108019.000000 136432.000000
108034.000000 136604.000000
108023.000000 136732.000000
108024.000000 136827.000000
108018.000000 136879.000000
108001.000000 136906.000000
107969.000000 136917.000000
107952.000000 136930.000000
107914.000000 136952.000000
107884.000000 137011.000000
107854.000000 137097.000000
107843.000000 137199.000000
107818.000000 137274.000000
107809.000000 137326.000000
100793.000000 119865.000000
107771.000000 137361.000000
107750.000000 137373.000000
107741.000000 137391.000000
107733.000000 137418.000000
107720.000000 137452.000000
107700.000000 137490.000000
107677.000000 137531.000000
107648.000000 137548.000000
107617.000000 137550.000000
107587.000000 137551.000000
107572.000000 137566.000000
107561.000000 137594.000000
107586.000000 137640.000000
107592.000000 137662.000000
107589.000000 137678.000000
107589.000000 137712.000000
107601.000000 137750.000000
107610.000000 137806.000000
107620.000000 137861.000000
107612.000000 137880.000000
107576.000000 137848.000000
107521.000000 137745.000000
107430.000000 137531.000000
107325.000000 137276.000000
107225.000000 137012.000000
107142.000000 136795.000000
107080.000000 136633.000000
107038.000000 136536.000000
107014.000000 136497.000000
107020.000000 136533.000000
107033.000000 136601.000000
107066.000000 136708.000000
107090.000000 136835.000000
107133.000000 136980.000000
107160.000000 137112.000000
107194.000000 137240.000000
107208.000000 137329.000000
107229.000000 137398.000000
107232.000000 137427.000000
107236.000000 137452.000000
107226.000000 137457.000000
107221.000000 137467.000000
107211.000000 137466.000000
107201.000000 137479.000000
107184.000000 137482.000000
107188.000000 137505.000000
107174.000000 137506.000000
107181.000000 137520.000000
107170.000000 137500.000000
107169.000000 137476.000000
107148.000000 137418.000000
107133.000000 137356.000000
107101.000000 137275.000000
107089.000000 137208.000000
107066.000000 137137.000000
107051.000000 137089.000000
107025.000000 137036.000000
107009.000000 137013.000000
106990.000000 136981.000000
106989.000000 136982.000000
106990.000000 136985.000000
106997.000000 137014.000000
107004.000000 137046.000000
107025.000000 137104.000000
107033.000000 137159.000000
107048.000000 137230.000000
107054.000000 137272.000000
107057.000000 137307.000000
107054.000000 137321.000000
107057.000000 137344.000000
107056.000000 137360.000000
107061.000000 137389.000000
107055.000000 137407.000000
107064.000000 137429.000000
107055.000000 137431.000000
107060.000000 137443.000000
107052.000000 137442.000000
107061.000000 137459.000000
107055.000000 137476.000000
107065.000000 137504.000000
107068.000000 137535.000000
107076.000000 137570.000000
107075.000000 137582.000000
107069.000000 137581.000000
107045.000000 137556.000000
107029.000000 137545.000000
107005.000000 137521.000000
107003.000000 137526.000000
107001.000000 137531.000000
107010.000000 137566.000000
107030.000000 137596.000000
107055.000000 137634.000000
107068.000000 137657.000000
107089.000000 137676.000000
107089.000000 137678.000000
107095.000000 137664.000000
107098.000000 137637.000000
107098.000000 137588.000000
107079.000000 137540.000000
107069.000000 137504.000000
107049.000000 137473.000000
107029.000000 137442.000000
107003.000000 137419.000000
107000.000000 137407.000000
106994.000000 137413.000000
106997.000000 137423.000000
107005.000000 137452.000000
107019.000000 137473.000000
107025.000000 137491.000000
107027.000000 137497.000000
107027.000000 137501.000000
107046.000000 137529.000000
107060.000000 137559.000000
107070.000000 137589.000000
107083.000000 137623.000000
107074.000000 137628.000000
107063.000000 137588.000000
107012.000000 137449.000000
106952.000000 137236.000000
106859.000000 136940.000000
106766.000000 136631.000000
106671.000000 136336.000000
106597.000000 136130.000000
106541.000000 136004.000000
106512.000000 135946.000000
106506.000000 135941.000000
106520.000000 135993.000000
106533.000000 136052.000000
106560.000000 136136.000000
106579.000000 136208.000000
106613.000000 136313.000000
106637.000000 136406.000000
106682.000000 136530.000000
106717.000000 136640.000000
106755.000000 136749.000000
106772.000000 136811.000000
106799.000000 136893.000000
106810.000000 136954.000000
106834.000000 137038.000000
106844.000000 137093.000000
106860.000000 137155.000000
106865.000000 137181.000000
106879.000000 137211.000000
106870.000000 137209.000000
106881.000000 137214.000000
106874.000000 137203.000000
106879.000000 137203.000000
106874.000000 137192.000000
106876.000000 137189.000000
106862.000000 137173.000000
106864.000000 137185.000000
106857.000000 137177.000000
106866.000000 137189.000000
106861.000000 137193.000000
106871.000000 137224.000000
106878.000000 137253.000000
106898.000000 137302.000000
106905.000000 137335.000000
106920.000000 137373.000000
106920.000000 137406.000000
106938.000000 137447.000000
106941.000000 137464.000000
106953.000000 137495.000000
106962.000000 137503.000000
106968.000000 137530.000000
106972.000000 137544.000000
106983.000000 137570.000000
106985.000000 137584.000000
106990.000000 137604.000000
106981.000000 137599.000000
106980.000000 137613.000000
106983.000000 137639.000000
106994.000000 137676.000000
107001.000000 137694.000000
107013.000000 137725.000000
107014.000000 137747.000000
107015.000000 137762.000000
107019.000000 137772.000000
107023.000000 137791.000000
107023.000000 137799.000000
107034.000000 137814.000000
107030.000000 137819.000000
107035.000000 137836.000000
107033.000000 137848.000000
107047.000000 137862.000000
107058.000000 137864.000000
107065.000000 137857.000000
107068.000000 137854.000000
107070.000000 137853.000000
107067.000000 137844.000000
107063.000000 137845.000000
107065.000000 137853.000000
107072.000000 137863.000000
107069.000000 137869.000000
107065.000000 137882.000000
107060.000000 137893.000000
107049.000000 137896.000000
107040.000000 137896.000000
107026.000000 137879.000000
107006.000000 137841.000000
107000.000000 137780.000000
106987.000000 137732.000000
106980.000000 137703.000000
106982.000000 137697.000000
106980.000000 137696.000000
106984.000000 137712.000000
106978.000000 137725.000000
106983.000000 137755.000000
106981.000000 137773.000000
106984.000000 137801.000000
106988.000000 137815.000000
106992.000000 137809.000000
106971.000000 137723.000000
106928.000000 137565.000000
106853.000000 137325.000000
106771.000000 137048.000000
106683.000000 136763.000000
106613.000000 136543.000000
106563.000000 136391.000000
106537.000000 136323.000000
106526.000000 136288.000000
106540.000000 136325.000000
106561.000000 136381.000000
106594.000000 136486.000000
106627.000000 136604.000000
106665.000000 136735.000000
106691.000000 136832.000000
106726.000000 136944.000000
106752.000000 137039.000000
106788.000000 137138.000000
106799.000000 137193.000000
106822.000000 137265.000000
106830.000000 137296.000000
106841.000000 137336.000000
106840.000000 137357.000000
106841.000000 137400.000000
106838.000000 137423.000000
106841.000000 137451.000000
106837.000000 137446.000000
106838.000000 137445.000000
106831.000000 137413.000000
106830.000000 137382.000000
106810.000000 137327.000000
106809.000000 137295.000000
106792.000000 137257.000000
106784.000000 137222.000000
106767.000000 137181.000000
106744.000000 137140.000000
106715.000000 137088.000000
106708.000000 137060.000000
106699.000000 137041.000000
106703.000000 137049.000000
106697.000000 137058.000000
106714.000000 137091.000000
106715.000000 137115.000000
106725.000000 137144.000000
106723.000000 137163.000000
106730.000000 137205.000000
106738.000000 137231.000000
106748.000000 137279.000000
106753.000000 137309.000000
106770.000000 137356.000000
106777.000000 137399.000000
106790.000000 137430.000000
106784.000000 137438.000000
106790.000000 137456.000000
106788.000000 137462.000000
106793.000000 137482.000000
106798.000000 137497.000000
106812.000000 137532.000000
106817.000000 137557.000000
106824.000000 137583.000000
106820.000000 137598.000000
106826.000000 137610.000000
106818.000000 137603.000000
106818.000000 137593.000000
106811.000000 137572.000000
106806.000000 137559.000000
106795.000000 137546.000000
106799.000000 137556.000000
106796.000000 137572.000000
106796.000000 137592.000000
106794.000000 137606.000000
106798.000000 137628.000000
106800.000000 137645.000000
106808.000000 137660.000000
106816.000000 137687.000000
106836.000000 137712.000000
106846.000000 137732.000000
106851.000000 137742.000000
106854.000000 137741.000000
106851.000000 137728.000000
106847.000000 137720.000000
106838.000000 137698.000000
106836.000000 137691.000000
106834.000000 137691.000000
106846.000000 137704.000000
106845.000000 137711.000000
106841.000000 137725.000000
106849.000000 137734.000000
106852.000000 137744.000000
106812.000000 137532.000000
106857.000000 137751.000000
106858.000000 137755.000000
106862.000000 137766.000000
106862.000000 137773.000000
106868.000000 137787.000000
106868.000000 137801.000000
106876.000000 137817.000000
106873.000000 137825.000000
106874.000000 137811.000000
106836.000000 137716.000000
106777.000000 137526.000000
106682.000000 137213.000000
106566.000000 136843.000000
106463.000000 136517.000000
106388.000000 136303.000000
106342.000000 136153.000000
106322.000000 136077.000000
106303.000000 136027.000000
106305.000000 136029.000000
106306.000000 136052.000000
106325.000000 136113.000000
106341.000000 136177.000000
106369.000000 136268.000000
106393.000000 136355.000000
106441.000000 136481.000000
106470.000000 136594.000000
106513.000000 136713.000000
106550.000000 136807.000000
106583.000000 136912.000000
106596.000000 136977.000000
106612.000000 137031.000000
106614.000000 137066.000000
106633.000000 137107.000000
106640.000000 137133.000000
106661.000000 137184.000000
106662.000000 137214.000000
106678.000000 137242.000000
106671.000000 137232.000000
106663.000000 137212.000000
106645.000000 137171.000000
106629.000000 137121.000000
106605.000000 137045.000000
106588.000000 136990.000000
106565.000000 136924.000000
106544.000000 136865.000000
106522.000000 136803.000000
106504.000000 136766.000000
106485.000000 136737.000000
106486.000000 136745.000000
106487.000000 136761.000000
106505.000000 136821.000000
106523.000000 136880.000000
106547.000000 136953.000000
106563.000000 137018.000000
106583.000000 137074.000000
106585.000000 137101.000000
106595.000000 137125.000000
106605.000000 137153.000000
106617.000000 137190.000000
106626.000000 137219.000000
106647.000000 137280.000000
106654.000000 137316.000000
106669.000000 137365.000000
106664.000000 137392.000000
106671.000000 137419.000000
106667.000000 137425.000000
106669.000000 137427.000000
106665.000000 137429.000000
106669.000000 137441.000000
106674.000000 137458.000000
106688.000000 137475.000000
106688.000000 137484.000000
106697.000000 137492.000000
106702.000000 137497.000000
106710.000000 137499.000000
106710.000000 137502.000000
106706.000000 137503.000000
106695.000000 137501.000000
106692.000000 137502.000000
106686.000000 137497.000000
106684.000000 137498.000000
106689.000000 137511.000000
106690.000000 137523.000000
106698.000000 137542.000000
106706.000000 137570.000000
106718.000000 137592.000000
106720.000000 137595.000000
106716.000000 137593.000000
106711.000000 137588.000000
106708.000000 137591.000000
106714.000000 137600.000000
106721.000000 137623.000000
106718.000000 137637.000000
106725.000000 137663.000000
106729.000000 137665.000000
106730.000000 137664.000000
106724.000000 137652.000000
106730.000000 137660.000000
106727.000000 137668.000000
106740.000000 137687.000000
106742.000000 137709.000000
106752.000000 137739.000000
106759.000000 137762.000000
106771.000000 137788.000000
106772.000000 137806.000000
106784.000000 137835.000000
106790.000000 137848.000000
106798.000000 137872.000000
106796.000000 137867.000000
106794.000000 137844.000000
106755.000000 137726.000000
106687.000000 137510.000000
106577.000000 137176.000000
106461.000000 136807.000000
106351.000000 136517.000000
106290.000000 136333.000000
106243.000000 136197.000000
106215.000000 136119.000000
106194.000000 136071.000000
106192.000000 136065.000000
106192.000000 136084.000000
106215.000000 136135.000000
106232.000000 136208.000000
106269.000000 136323.000000
106297.000000 136426.000000
106338.000000 136545.000000
106360.000000 136644.000000
106395.000000 136746.000000
106425.000000 136827.000000
106455.000000 136914.000000
106470.000000 136973.000000
106494.000000 137035.000000
106511.000000 137084.000000
106531.000000 137129.000000
106538.000000 137171.000000
106556.000000 137219.000000
106557.000000 137240.000000
106567.000000 137262.000000
106561.000000 137251.000000
106563.000000 137239.000000
106545.000000 137191.000000
106534.000000 137146.000000
106513.000000 137079.000000
106491.000000 137024.000000
106464.000000 136962.000000
106445.000000 136912.000000
106420.000000 136864.000000
106417.000000 136853.000000
106404.000000 136849.000000
106409.000000 136867.000000
106415.000000 136894.000000
106431.000000 136943.000000
106446.000000 136984.000000
106465.000000 137027.000000
106471.000000 137064.000000
106485.000000 137110.000000
106495.000000 137149.000000
106512.000000 137194.000000
106516.000000 137233.000000
106529.000000 137274.000000
106540.000000 137313.000000
106546.000000 137339.000000
106545.000000 137350.000000
106546.000000 137359.000000
106550.000000 137381.000000
106558.000000 137398.000000
106560.000000 137424.000000
106564.000000 137444.000000
106569.000000 137471.000000
106582.000000 137492.000000
106584.000000 137505.000000
106590.000000 137516.000000
106593.000000 137526.000000
106593.000000 137528.000000
106591.000000 137531.000000
106587.000000 137529.000000
106587.000000 137540.000000
106588.000000 137554.000000
106587.000000 137573.000000
106584.000000 137587.000000
106586.000000 137604.000000
106580.000000 137615.000000
106579.000000 137630.000000
106578.000000 137632.000000
106582.000000 137647.000000
106596.000000 137660.000000
106610.000000 137688.000000
106621.000000 137706.000000
106638.000000 137727.000000
106644.000000 137743.000000
106648.000000 137760.000000
106647.000000 137765.000000
106658.000000 137782.000000
106650.000000 137786.000000
106651.000000 137804.000000
106647.000000 137801.000000
106647.000000 137811.000000
106636.000000 137810.000000
106636.000000 137825.000000
106631.000000 137826.000000
106636.000000 137847.000000
106642.000000 137866.000000
106655.000000 137907.000000
106659.000000 137924.000000
106671.000000 137948.000000
106670.000000 137950.000000
106670.000000 137925.000000
106634.000000 137800.000000
106570.000000 137581.000000
106464.000000 137251.000000
106353.000000 136898.000000
106236.000000 136565.000000
106167.000000 136367.000000
106114.000000 136232.000000
106090.000000 136162.000000
106065.000000 136109.000000
106068.000000 136116.000000
106066.000000 136140.000000
106094.000000 136208.000000
106114.000000 136280.000000
106148.000000 136376.000000
106179.000000 136474.000000
106218.000000 136578.000000
106248.000000 136687.000000
106285.000000 136802.000000
106316.000000 136902.000000
106348.000000 137002.000000
106356.000000 137054.000000
106367.000000 137098.000000
106374.000000 137127.000000
106388.000000 137174.000000
106401.000000 137216.000000
106425.000000 137275.000000
106435.000000 137306.000000
106457.000000 137332.000000
106455.000000 137322.000000
106452.000000 137302.000000
106430.000000 137255.000000
106415.000000 137199.000000
106387.000000 137132.000000
106368.000000 137071.000000
106340.000000 136996.000000
106321.000000 136941.000000
106297.000000 136883.000000
106287.000000 136851.000000
106285.000000 136828.000000
106283.000000 136823.000000
106280.000000 136837.000000
106293.000000 136886.000000
106307.000000 136948.000000
106328.000000 137032.000000
106341.000000 137089.000000
106360.000000 137149.000000
106368.000000 137193.000000
106390.000000 137249.000000
106413.000000 137307.000000
106434.000000 137364.000000
106448.000000 137399.000000
106455.000000 137428.000000
106457.000000 137440.000000
106457.000000 137451.000000
106457.000000 137468.000000
106459.000000 137480.000000
106458.000000 137504.000000
106465.000000 137525.000000
106470.000000 137546.000000
106477.000000 137563.000000
106484.000000 137574.000000
106486.000000 137585.000000
106495.000000 137602.000000
106496.000000 137603.000000
106501.000000 137617.000000
106496.000000 137614.000000
106495.000000 137622.000000
106493.000000 137619.000000
106492.000000 137625.000000
106491.000000 137631.000000
106495.000000 137644.000000
106504.000000 137660.000000
106516.000000 137684.000000
106516.000000 137698.000000
106520.000000 137713.000000
106522.000000 137716.000000
106534.000000 137731.000000
106534.000000 137732.000000
106531.000000 137742.000000
106529.000000 137743.000000
106532.000000 137756.000000
106530.000000 137755.000000
106537.000000 137776.000000
106537.000000 137786.000000
106549.000000 137817.000000
106556.000000 137835.000000
106561.000000 137855.000000
106553.000000 137853.000000
106561.000000 137864.000000
106556.000000 137856.000000
106565.000000 137870.000000
106566.000000 137873.000000
106577.000000 137893.000000
106582.000000 137899.000000
106594.000000 137928.000000
106592.000000 137935.000000
106596.000000 137947.000000
106593.000000 137947.000000
106599.000000 137967.000000
106596.000000 137976.000000
106604.000000 137987.000000
106595.000000 137995.000000
106600.000000 138026.000000
106593.000000 138035.000000
106601.000000 138053.000000
106588.000000 138030.000000
106567.000000 137964.000000
106492.000000 137767.000000
106409.000000 137501.000000
106298.000000 137155.000000
106189.000000 136809.000000
106095.000000 136531.000000
106042.000000 136377.000000
106005.000000 136269.000000
105993.000000 136229.000000
105985.000000 136212.000000
105997.000000 136237.000000
106011.000000 136285.000000
106050.000000 136376.000000
106079.000000 136474.000000
106127.000000 136606.000000
106168.000000 136733.000000
106218.000000 136866.000000
106249.000000 136967.000000
106280.000000 137058.000000
106295.000000 137118.000000
106309.000000 137172.000000
106309.000000 137198.000000
106315.000000 137238.000000
106325.000000 137275.000000
106345.000000 137314.000000
106358.000000 137360.000000
106384.000000 137405.000000
106390.000000 137425.000000
106399.000000 137428.000000
106393.000000 137417.000000
106396.000000 137386.000000
106375.000000 137338.000000
106364.000000 137294.000000
106346.000000 137258.000000
106335.000000 137224.000000
106313.000000 137189.000000
106297.000000 137163.000000
106278.000000 137134.000000
106267.000000 137114.000000
106260.000000 137116.000000
106257.000000 137130.000000
106268.000000 137182.000000
106289.000000 137236.000000
106308.000000 137304.000000
106332.000000 137359.000000
106344.000000 137409.000000
106358.000000 137442.000000
106369.000000 137474.000000
106379.000000 137501.000000
106386.000000 137525.000000
106386.000000 137540.000000
106395.000000 137563.000000
106396.000000 137576.000000
106405.000000 137597.000000
106405.000000 137605.000000
106408.000000 137619.000000
106412.000000 137634.000000
106421.000000 137652.000000
106420.000000 137659.000000
106424.000000 137670.000000
106422.000000 137675.000000
106417.000000 137681.000000
106416.000000 137671.000000
106421.000000 137681.000000
106420.000000 137675.000000
106428.000000 137686.000000
106427.000000 137681.000000
106428.000000 137680.000000
106422.000000 137661.000000
106417.000000 137659.000000
106415.000000 137650.000000
106421.000000 137663.000000
106426.000000 137674.000000
106433.000000 137697.000000
106426.000000 137693.000000
106425.000000 137701.000000
106415.000000 137681.000000
106417.000000 137686.000000
106408.000000 137676.000000
106410.000000 137692.000000
106412.000000 137694.000000
106422.000000 137721.000000
106419.000000 137722.000000
106435.000000 137748.000000
106433.000000 137755.000000
106444.000000 137772.000000
106443.000000 137773.000000
106448.000000 137785.000000
106446.000000 137781.000000
106458.000000 137807.000000
106456.000000 137822.000000
106469.000000 137846.000000
106469.000000 137862.000000
106476.000000 137881.000000
106474.000000 137885.000000
106481.000000 137888.000000
106466.000000 137881.000000
106466.000000 137880.000000
106462.000000 137869.000000
106467.000000 137872.000000
106461.000000 137861.000000
106466.000000 137874.000000
106467.000000 137878.000000
106478.000000 137894.000000
106477.000000 137907.000000
106483.000000 137926.000000
106478.000000 137932.000000
106485.000000 137949.000000
106480.000000 137951.000000
106487.000000 137970.000000
106488.000000 137973.000000
106502.000000 137988.000000
106482.000000 137926.000000
106435.000000 137776.000000
106345.000000 137504.000000
106232.000000 137147.000000
106094.000000 136736.000000
105983.000000 136417.000000
105911.000000 136219.000000
105869.000000 136092.000000
105834.000000 136004.000000
105823.000000 135961.000000
105814.000000 135955.000000
105825.000000 135988.000000
105842.000000 136042.000000
105870.000000 136118.000000
105899.000000 136208.000000
105936.000000 136322.000000
105974.000000 136442.000000
106010.000000 136549.000000
106035.000000 136642.000000
106066.000000 136723.000000
106081.000000 136791.000000
106103.000000 136844.000000
106111.000000 136881.000000
106121.000000 136902.000000
106140.000000 136947.000000
106155.000000 136999.000000
106167.000000 137046.000000
106174.000000 137085.000000
106186.000000 137107.000000
106188.000000 137107.000000
106190.000000 137101.000000
106184.000000 137072.000000
106174.000000 137032.000000
106155.000000 136972.000000
106145.000000 136923.000000
106120.000000 136857.000000
106106.000000 136811.000000
106093.000000 136773.000000
106085.000000 136761.000000
106081.000000 136759.000000
106084.000000 136774.000000
106090.000000 136800.000000
106100.000000 136858.000000
106117.000000 136904.000000
106139.000000 136969.000000
106158.000000 137021.000000
106181.000000 137090.000000
106195.000000 137139.000000
106221.000000 137205.000000
106234.000000 137262.000000
106254.000000 137322.000000
106260.000000 137340.000000
106266.000000 137361.000000
106264.000000 137360.000000
106269.000000 137375.000000
106269.000000 137380.000000
106285.000000 137412.000000
106282.000000 137423.000000
106295.000000 137460.000000
106303.000000 137471.000000
106316.000000 137500.000000
106315.000000 137501.000000
106325.000000 137518.000000
106320.000000 137518.000000
106326.000000 137532.000000
106327.000000 137530.000000
106338.000000 137543.000000
106332.000000 137540.000000
106341.000000 137550.000000
106333.000000 137546.000000
106336.000000 137548.000000
106321.000000 137549.000000
106329.000000 137568.000000
106327.000000 137573.000000
106342.000000 137603.000000
106344.000000 137617.000000
106358.000000 137635.000000
106365.000000 137648.000000
106370.000000 137667.000000
106372.000000 137666.000000
106379.000000 137682.000000
106384.000000 137691.000000
106392.000000 137700.000000
106385.000000 137703.000000
106395.000000 137720.000000
106389.000000 137722.000000
106403.000000 137746.000000
106406.000000 137749.000000
106416.000000 137769.000000
106415.000000 137762.000000
106414.000000 137762.000000
106417.000000 137758.000000
106417.000000 137763.000000
106416.000000 137769.000000
106421.000000 137788.000000
106421.000000 137801.000000
106425.000000 137821.000000
106420.000000 137829.000000
106423.000000 137834.000000
106419.000000 137839.000000
106419.000000 137848.000000
106420.000000 137860.000000
106428.000000 137874.000000
106427.000000 137879.000000
106432.000000 137886.000000
106433.000000 137886.000000
106435.000000 137887.000000
106428.000000 137900.000000
106430.000000 137907.000000
106428.000000 137926.000000
106435.000000 137938.000000
106437.000000 137951.000000
106437.000000 137930.000000
106411.000000 137849.000000
106353.000000 137661.000000
106263.000000 137375.000000
106143.000000 136998.000000
106013.000000 136610.000000
105922.000000 136339.000000
105866.000000 136172.000000
105826.000000 136059.000000
105807.000000 136003.000000
105792.000000 135972.000000
105802.000000 136000.000000
105818.000000 136048.000000
105849.000000 136134.000000
105883.000000 136231.000000
105931.000000 136356.000000
105966.000000 136478.000000
106006.000000 136598.000000
106039.000000 136703.000000
106069.000000 136805.000000
106092.000000 136877.000000
106111.000000 136940.000000
106120.000000 136975.000000
106124.000000 137013.000000
106125.000000 137031.000000
106138.000000 137066.000000
106150.000000 137114.000000
106174.000000 137175.000000
106186.000000 137202.000000
106200.000000 137217.000000
106190.000000 137194.000000
106180.000000 137168.000000
106163.000000 137108.000000
106147.000000 137066.000000
106124.000000 137005.000000
106102.000000 136960.000000
106075.000000 136892.000000
106067.000000 136862.000000
106046.000000 136847.000000
106053.000000 136857.000000
106047.000000 136875.000000
106055.000000 136904.000000
106062.000000 136947.000000
106081.000000 137013.000000
106096.000000 137058.000000
106115.000000 137116.000000
106129.000000 137159.000000
106146.000000 137213.000000
106153.000000 137245.000000
106171.000000 137278.000000
106169.000000 137294.000000
106184.000000 137316.000000
106187.000000 137323.000000
106197.000000 137349.000000
106197.000000 137358.000000
106205.000000 137374.000000
106205.000000 137374.000000
106209.000000 137392.000000
106207.000000 137398.000000
106220.000000 137426.000000
106215.000000 137438.000000
106200.000000 137217.000000
106230.000000 137473.000000
106242.000000 137492.000000
106237.000000 137489.000000
106240.000000 137491.000000
106236.000000 137487.000000
106240.000000 137498.000000
106243.000000 137506.000000
106254.000000 137526.000000
106258.000000 137543.000000
106268.000000 137566.000000
106277.000000 137580.000000
106287.000000 137612.000000
106288.000000 137620.000000
106299.000000 137639.000000
106302.000000 137650.000000
106308.000000 137658.000000
106310.000000 137674.000000
106313.000000 137684.000000
106318.000000 137704.000000
106326.000000 137719.000000
106328.000000 137735.000000
106335.000000 137746.000000
106334.000000 137758.000000
106334.000000 137758.000000
106330.000000 137767.000000
106334.000000 137779.000000
106339.000000 137793.000000
106342.000000 137802.000000
106346.000000 137818.000000
106353.000000 137830.000000
106362.000000 137855.000000
106363.000000 137864.000000
106369.000000 137879.000000
106372.000000 137893.000000
106380.000000 137923.000000
106385.000000 137939.000000
106387.000000 137965.000000
106396.000000 137974.000000
106404.000000 137992.000000
106406.000000 137998.000000
106411.000000 138006.000000
106407.000000 138018.000000
106412.000000 138037.000000
106406.000000 138040.000000
106406.000000 138054.000000
106406.000000 138056.000000
106410.000000 138082.000000
106410.000000 138090.000000
106420.000000 138116.000000
106420.000000 138109.000000
106420.000000 138089.000000
106385.000000 137974.000000
106321.000000 137775.000000
106224.000000 137485.000000
106116.000000 137157.000000
106000.000000 136804.000000
105912.000000 136526.000000
105850.000000 136347.000000
105823.000000 136258.000000
105800.000000 136197.000000
105800.000000 136186.000000
105797.000000 136200.000000
105817.000000 136255.000000
105840.000000 136336.000000
105880.000000 136453.000000
105911.000000 136575.000000
105958.000000 136706.000000
105992.000000 136827.000000
106031.000000 136947.000000
106053.000000 137023.000000
106083.000000 137095.000000
106089.000000 137132.000000
106107.000000 137169.000000
106111.000000 137185.000000
106125.000000 137218.000000
106137.000000 137238.000000
106148.000000 137280.000000
106156.000000 137311.000000
106169.000000 137350.000000
106168.000000 137355.000000
106175.000000 137366.000000
106162.000000 137337.000000
106155.000000 137311.000000
106133.000000 137255.000000
106119.000000 137209.000000
106096.000000 137152.000000
106088.000000 137118.000000
106063.000000 137074.000000
106055.000000 137049.000000
106043.000000 137031.000000
106047.000000 137037.000000
106048.000000 137049.000000
106068.000000 137087.000000
106081.000000 137123.000000
106100.000000 137174.000000
106114.000000 137207.000000
106132.000000 137250.000000
106137.000000 137273.000000
106157.000000 137315.000000
106159.000000 137332.000000
106162.000000 137344.000000
106159.000000 137346.000000
106165.000000 137359.000000
106165.000000 137370.000000
106177.000000 137399.000000
106178.000000 137419.000000
106188.000000 137449.000000
106193.000000 137465.000000
106198.000000 137494.000000
106209.000000 137519.000000
106215.000000 137533.000000
106223.000000 137554.000000
106222.000000 137546.000000
106220.000000 137544.000000
106223.000000 137526.000000
106217.000000 137520.000000
106223.000000 137530.000000
106224.000000 137552.000000
106229.000000 137566.000000
106231.000000 137584.000000
106235.000000 137598.000000
106243.000000 137618.000000
106247.000000 137621.000000
106256.000000 137643.000000
106259.000000 137638.000000
106262.000000 137641.000000
106267.000000 137641.000000
106269.000000 137647.000000
106263.000000 137648.000000
106261.000000 137654.000000
106259.000000 137650.000000
106255.000000 137654.000000
106248.000000 137652.000000
106248.000000 137662.000000
106243.000000 137664.000000
106243.000000 137680.000000
106237.000000 137675.000000
106241.000000 137696.000000
106245.000000 137705.000000
106251.000000 137737.000000
106258.000000 137737.000000
106261.000000 137752.000000
106258.000000 137748.000000
106258.000000 137754.000000
106252.000000 137749.000000
106262.000000 137760.000000
106259.000000 137760.000000
106217.000000 137520.000000
106258.000000 137756.000000
106263.000000 137769.000000
106260.000000 137768.000000
106266.000000 137772.000000
106261.000000 137786.000000
106272.000000 137814.000000
106272.000000 137822.000000
106283.000000 137844.000000
106282.000000 137848.000000
106285.000000 137863.000000
106276.000000 137865.000000
106284.000000 137880.000000
106286.000000 137883.000000
106295.000000 137893.000000
106284.000000 137878.000000
106267.000000 137825.000000
106213.000000 137673.000000
106136.000000 137443.000000
106023.000000 137102.000000
105893.000000 136717.000000
105770.000000 136359.000000
105704.000000 136146.000000
105648.000000 136002.000000
105625.000000 135918.000000
105606.000000 135870.000000
105605.000000 135879.000000
105613.000000 135897.000000
105640.000000 135964.000000
105663.000000 136038.000000
105702.000000 136149.000000
105739.000000 136267.000000
105786.000000 136410.000000
105826.000000 136535.000000
105859.000000 136652.000000
105885.000000 136726.000000
105912.000000 136788.000000
105920.000000 136823.000000
105931.000000 136861.000000
105938.000000 136881.000000
105957.000000 136915.000000
105964.000000 136949.000000
105980.000000 136999.000000
105990.000000 137047.000000
106010.000000 137082.000000
106006.000000 137088.000000
106003.000000 137075.000000
105982.000000 137027.000000
105968.000000 136970.000000
105946.000000 136910.000000
105931.000000 136851.000000
105910.000000 136813.000000
105905.000000 136785.000000
105894.000000 136763.000000
105887.000000 136740.000000
105880.000000 136728.000000
105877.000000 136714.000000
105883.000000 136726.000000
105891.000000 136751.000000
105907.000000 136783.000000
105924.000000 136830.000000
105942.000000 136877.000000
105952.000000 136914.000000
105965.000000 136958.000000
105977.000000 137006.000000
105988.000000 137048.000000
105997.000000 137085.000000
106014.000000 137129.000000
106022.000000 137158.000000
106029.000000 137185.000000
106037.000000 137207.000000
106049.000000 137232.000000
106045.000000 137247.000000
106053.000000 137283.000000
106059.000000 137306.000000
106067.000000 137339.000000
106079.000000 137363.000000
106090.000000 137408.000000
106099.000000 137428.000000
106108.000000 137450.000000
106109.000000 137452.000000
106118.000000 137468.000000
106112.000000 137468.000000
106123.000000 137478.000000
106114.000000 137479.000000
106125.000000 137497.000000
106126.000000 137501.000000
106138.000000 137526.000000
106137.000000 137534.000000
106146.000000 137552.000000
106144.000000 137560.000000
106152.000000 137574.000000
106149.000000 137573.000000
106156.000000 137585.000000
106155.000000 137579.000000
106163.000000 137595.000000
106157.000000 137598.000000
106173.000000 137622.000000
106173.000000 137629.000000
106183.000000 137657.000000
106179.000000 137661.000000
106184.000000 137671.000000
106184.000000 137673.000000
106191.000000 137682.000000
106186.000000 137678.000000
106191.000000 137688.000000
106194.000000 137701.000000
106204.000000 137724.000000
106202.000000 137736.000000
106213.000000 137754.000000
106211.000000 137754.000000
106215.000000 137775.000000
106213.000000 137765.000000
106212.000000 137777.000000
106213.000000 137779.000000
106219.000000 137789.000000
106220.000000 137793.000000
106229.000000 137817.000000
106232.000000 137835.000000
106246.000000 137861.000000
106244.000000 137867.000000
106252.000000 137896.000000
106259.000000 137909.000000
106264.000000 137928.000000
106262.000000 137938.000000
106271.000000 137952.000000
106270.000000 137948.000000
106262.000000 137912.000000
106216.000000 137792.000000
106149.000000 137581.000000
106045.000000 137278.000000
105932.000000 136920.000000
105814.000000 136562.000000
105739.000000 136320.000000
105687.000000 136179.000000
105656.000000 136082.000000
105633.000000 136014.000000
105625.000000 135994.000000
105628.000000 136012.000000
105644.000000 136060.000000
105676.000000 136157.000000
105716.000000 136276.000000
105758.000000 136420.000000
105801.000000 136563.000000
105843.000000 136700.000000
105878.000000 136813.000000
105910.000000 136910.000000
105936.000000 136980.000000
106220.000000 137793.000000
105967.000000 137062.000000
105980.000000 137101.000000
105984.000000 137119.000000
105990.000000 137139.000000
105996.000000 137153.000000
106008.000000 137190.000000
106015.000000 137204.000000
106016.000000 137200.000000
106006.000000 137161.000000
105990.000000 137104.000000
105964.000000 137034.000000
105949.000000 136977.000000
105927.000000 136903.000000
105908.000000 136840.000000
105877.000000 136758.000000
105854.000000 136701.000000
105832.000000 136653.000000
105828.000000 136638.000000
105834.000000 136645.000000
105845.000000 136685.000000
105854.000000 136716.000000
105867.000000 136769.000000
105876.000000 136809.000000
105896.000000 136858.000000
105903.000000 136898.000000
105924.000000 136954.000000
105939.000000 136996.000000
105960.000000 137055.000000
105971.000000 137100.000000
105993.000000 137151.000000
105999.000000 137178.000000
106017.000000 137214.000000
106015.000000 137229.000000
106026.000000 137253.000000
106024.000000 137255.000000
106033.000000 137267.000000
106024.000000 137264.000000
106037.000000 137278.000000
106038.000000 137294.000000
106051.000000 137313.000000
106048.000000 137320.000000
106055.000000 137330.000000
106048.000000 137337.000000
106057.000000 137357.000000
106053.000000 137350.000000
106062.000000 137363.000000
106057.000000 137357.000000
106063.000000 137361.000000
106064.000000 137361.000000
106068.000000 137376.000000
106064.000000 137377.000000
106065.000000 137389.000000
106068.000000 137386.000000
106074.000000 137396.000000
106063.000000 137391.000000
106072.000000 137401.000000
106071.000000 137403.000000
106079.000000 137418.000000
106074.000000 137422.000000
106082.000000 137438.000000
106082.000000 137449.000000
106089.000000 137463.000000
106083.000000 137472.000000
106094.000000 137495.000000
106095.000000 137506.000000
106101.000000 137511.000000
106096.000000 137513.000000
106101.000000 137519.000000
106095.000000 137510.000000
106100.000000 137519.000000
106097.000000 137520.000000
106106.000000 137531.000000
106108.000000 137554.000000
106114.000000 137572.000000
106119.000000 137592.000000
106129.000000 137611.000000
106133.000000 137622.000000
106136.000000 137633.000000
106136.000000 137647.000000
106143.000000 137664.000000
106147.000000 137683.000000
106147.000000 137686.000000
106138.000000 137669.000000
106109.000000 137581.000000
106041.000000 137379.000000
105940.000000 137071.000000
105809.000000 136674.000000
105671.000000 136282.000000
105583.000000 136021.000000
105531.000000 135854.000000
105491.000000 135744.000000
105474.000000 135680.000000
105469.000000 135675.000000
105478.000000 135700.000000
105499.000000 135755.000000
105521.000000 135810.000000
105551.000000 135895.000000
105583.000000 135986.000000
105618.000000 136115.000000
105660.000000 136242.000000
105703.000000 136378.000000
105744.000000 136493.000000
105778.000000 136605.000000
105803.000000 136683.000000
105824.000000 136740.000000
105834.000000 136768.000000
105841.000000 136794.000000
105846.000000 136816.000000
105863.000000 136859.000000
105875.000000 136896.000000
105894.000000 136948.000000
105900.000000 136959.000000
105900.000000 136967.000000
105890.000000 136944.000000
105889.000000 136913.000000
105862.000000 136848.000000
105848.000000 136791.000000
105818.000000 136719.000000
105808.000000 136666.000000
105783.000000 136605.000000
105770.000000 136560.000000
105750.000000 136521.000000
105753.000000 136525.000000
105757.000000 136533.000000
105769.000000 136576.000000
105777.000000 136614.000000
105795.000000 136676.000000
105813.000000 136731.000000
105835.000000 136798.000000
105851.000000 136866.000000
105875.000000 136923.000000
105888.000000 136964.000000
105910.000000 137008.000000
105914.000000 137044.000000
105937.000000 137078.000000
105940.000000 137094.000000
105953.000000 137126.000000
105956.000000 137145.000000
105974.000000 137188.000000
105981.000000 137214.000000
105993.000000 137234.000000
105992.000000 137240.000000
106003.000000 137261.000000
106000.000000 137268.000000
106001.000000 137284.000000
105998.000000 137286.000000
106004.000000 137303.000000
106002.000000 137308.000000
106007.000000 137324.000000
106010.000000 137331.000000
106014.000000 137342.000000
106014.000000 137344.000000
106023.000000 137359.000000
106021.000000 137366.000000
106024.000000 137376.000000
106017.000000 137374.000000
106026.000000 137382.000000
106019.000000 137381.000000
106023.000000 137385.000000
106020.000000 137386.000000
106028.000000 137398.000000
106035.000000 137421.000000
106045.000000 137443.000000
106043.000000 137458.000000
106047.000000 137472.000000
106047.000000 137488.000000
106053.000000 137495.000000
106059.000000 137500.000000
106062.000000 137514.000000
106059.000000 137521.000000
106068.000000 137528.000000
106063.000000 137545.000000
106072.000000 137558.000000
106074.000000 137582.000000
106078.000000 137585.000000
106081.000000 137606.000000
106089.000000 137615.000000
106095.000000 137624.000000
106096.000000 137618.000000
106095.000000 137617.000000
106092.000000 137618.000000
106097.000000 137631.000000
106101.000000 137644.000000
106104.000000 137660.000000
106102.000000 137661.000000
106101.000000 137665.000000
106100.000000 137669.000000
106106.000000 137675.000000
106107.000000 137682.000000
106107.000000 137699.000000
106103.000000 137711.000000
106113.000000 137739.000000
106109.000000 137731.000000
106101.000000 137685.000000
106048.000000 137517.000000
105952.000000 137228.000000
105818.000000 136812.000000
105662.000000 136348.000000
105537.000000 136004.000000
105466.000000 135776.000000
105406.000000 135607.000000
105370.000000 135514.000000
105350.000000 135461.000000
105351.000000 135465.000000
105359.000000 135487.000000
105385.000000 135566.000000
105409.000000 135639.000000
105445.000000 135743.000000
105480.000000 135852.000000
105527.000000 135980.000000
105566.000000 136116.000000
105615.000000 136256.000000
105649.000000 136370.000000
105685.000000 136467.000000
105697.000000 136512.000000
105711.000000 136551.000000
105714.000000 136568.000000
105732.000000 136602.000000
105742.000000 136640.000000
105758.000000 136698.000000
105774.000000 136740.000000
105788.000000 136769.000000
105776.000000 136753.000000
105771.000000 136718.000000
105748.000000 136657.000000
105731.000000 136597.000000
105706.000000 136528.000000
105686.000000 136489.000000
105667.000000 136442.000000
105648.000000 136391.000000
105620.000000 136330.000000
105603.000000 136284.000000
105585.000000 136238.000000
105585.000000 136207.000000
105571.000000 136191.000000
105580.000000 136203.000000
105587.000000 136230.000000
105605.000000 136279.000000
105619.000000 136329.000000
105634.000000 136393.000000
105653.000000 136449.000000
105684.000000 136529.000000
105700.000000 136598.000000
105733.000000 136671.000000
105748.000000 136723.000000
105770.000000 136771.000000
105775.000000 136812.000000
105790.000000 136849.000000
105800.000000 136878.000000
105820.000000 136916.000000
105827.000000 136950.000000
105846.000000 136989.000000
105857.000000 137022.000000
105867.000000 137055.000000
105873.000000 137077.000000
105884.000000 137091.000000
105884.000000 137102.000000
105894.000000 137116.000000
105891.000000 137127.000000
105899.000000 137142.000000
105907.000000 137164.000000
105914.000000 137185.000000
105921.000000 137203.000000
105927.000000 137207.000000
105932.000000 137224.000000
105932.000000 137225.000000
105935.000000 137233.000000
105930.000000 137232.000000
105934.000000 137243.000000
105938.000000 137245.000000
105947.000000 137269.000000
105947.000000 137281.000000
105958.000000 137309.000000
105961.000000 137324.000000
105968.000000 137344.000000
105965.000000 137350.000000
105968.000000 137361.000000
105974.000000 137372.000000
105981.000000 137390.000000
105984.000000 137396.000000
105993.000000 137422.000000
105993.000000 137424.000000
106002.000000 137451.000000
106006.000000 137469.000000
106010.000000 137485.000000
106012.000000 137491.000000
106021.000000 137515.000000
106017.000000 137513.000000
106023.000000 137529.000000
106026.000000 137526.000000
106039.000000 137557.000000
106040.000000 137566.000000
106053.000000 137588.000000
106053.000000 137597.000000
106064.000000 137630.000000
106063.000000 137635.000000
106070.000000 137663.000000
106071.000000 137673.000000
106084.000000 137701.000000
106080.000000 137715.000000
106093.000000 137730.000000
106081.000000 137705.000000
106062.000000 137622.000000
105988.000000 137400.000000
105878.000000 137066.000000
105723.000000 136623.000000
105589.000000 136220.000000
105487.000000 135946.000000
105432.000000 135779.000000
105389.000000 135656.000000
105368.000000 135597.000000
105355.000000 135568.000000
105363.000000 135592.000000
105380.000000 135643.000000
105417.000000 135730.000000
105445.000000 135814.000000
105489.000000 135933.000000
105530.000000 136044.000000
105579.000000 136174.000000
105617.000000 136299.000000
105665.000000 136432.000000
105691.000000 136538.000000
105728.000000 136629.000000
105743.000000 136691.000000
105763.000000 136739.000000
105771.000000 136774.000000
105788.000000 136813.000000
105796.000000 136852.000000
105821.000000 136911.000000
105833.000000 136955.000000
105851.000000 136990.000000
105849.000000 136984.000000
105845.000000 136958.000000
105825.000000 136904.000000
105803.000000 136831.000000
105767.000000 136745.000000
105743.000000 136662.000000
105715.000000 136589.000000
105700.000000 136541.000000
105681.000000 136498.000000
105671.000000 136477.000000
105666.000000 136461.000000
105658.000000 136438.000000
105652.000000 136428.000000
105655.000000 136430.000000
105668.000000 136464.000000
105694.000000 136531.000000
105715.000000 136602.000000
105746.000000 136672.000000
105768.000000 136745.000000
105785.000000 136792.000000
105803.000000 136832.000000
105807.000000 136840.000000
105806.000000 136818.000000
105794.000000 136784.000000
105787.000000 136778.000000
105792.000000 136810.000000
105807.000000 136875.000000
105834.000000 136971.000000
105870.000000 137082.000000
105902.000000 137159.000000
105924.000000 137202.000000
105936.000000 137218.000000
105960.000000 137251.000000
105970.000000 137260.000000
105983.000000 137264.000000
105973.000000 137221.000000
105962.000000 137181.000000
105936.000000 137117.000000
105918.000000 137082.000000
105905.000000 137064.000000
105900.000000 137068.000000
105893.000000 137072.000000
105897.000000 137094.000000
105902.000000 137122.000000
105921.000000 137161.000000
105925.000000 137155.000000
105941.000000 137167.000000
105936.000000 137126.000000
105932.000000 137083.000000
105905.000000 136991.000000
105885.000000 136916.000000
105854.000000 136849.000000
105847.000000 136835.000000
105830.000000 136836.000000
105826.000000 136848.000000
105800.000000 136838.000000
105776.000000 136823.000000
105739.000000 136769.000000
105713.000000 136734.000000
105687.000000 136689.000000
105677.000000 136664.000000
105665.000000 136642.000000
105669.000000 136649.000000
105675.000000 136681.000000
105704.000000 136751.000000
105726.000000 136823.000000
105763.000000 136915.000000
105789.000000 136987.000000
105820.000000 137045.000000
105822.000000 137034.000000
105788.000000 136890.000000
105676.000000 136534.000000
105522.000000 136060.000000
105383.000000 135668.000000
105293.000000 135391.000000
105226.000000 135194.000000
105187.000000 135068.000000
105149.000000 134984.000000
105141.000000 134954.000000
105129.000000 134949.000000
105141.000000 134979.000000
105145.000000 135012.000000
105161.000000 135061.000000
105176.000000 135107.000000
105202.000000 135170.000000
105209.000000 135222.000000
105236.000000 135294.000000
105248.000000 135353.000000
105273.000000 135425.000000
105286.000000 135472.000000
105301.000000 135509.000000
105304.000000 135524.000000
105307.000000 135534.000000
105306.000000 135533.000000
105318.000000 135537.000000
105317.000000 135550.000000
105327.000000 135569.000000
105330.000000 135568.000000
105325.000000 135548.000000
105298.000000 135487.000000
105278.000000 135421.000000
